inp_z_score,out_z_score
-2.785037790878709,-1.3653899918877155
-1.3653899918877155,-1.4968611972695347
-1.4968611972695347,1.7145043914561802
1.7145043914561802,1.4607609664556243
1.4607609664556243,-1.966556263544917
-1.966556263544917,0.702665866015572
0.702665866015572,2.479378564914605
2.479378564914605,-0.2892104675023826
-0.2892104675023826,2.4012118478602287
2.4012118478602287,-0.7290097360365434
-0.7290097360365434,0.47835604963552564
0.47835604963552564,-1.066796433891424
-1.066796433891424,0.5926152384449908
0.5926152384449908,0.9232905201115196
0.9232905201115196,1.2098381259315674
1.2098381259315674,-1.993293727368854
-1.993293727368854,0.01151204593018787
0.01151204593018787,0.9166241635723341
0.9166241635723341,2.0086621976727272
2.0086621976727272,1.8108248288238225
1.8108248288238225,-0.41125032972413483
-0.41125032972413483,0.006108896559872733
0.006108896559872733,0.03775705640897842
0.03775705640897842,0.5578348496860323
0.5578348496860323,-1.2406091337463827
-1.2406091337463827,-1.8459446551752536
-1.8459446551752536,0.3681099250780521
0.3681099250780521,1.2992466349902314
1.2992466349902314,-0.5850623330490832
-0.5850623330490832,-0.8839016636122913
-0.8839016636122913,-1.1531982737788
-1.1531982737788,-3.3337321787757737
-3.3337321787757737,0.9106321624515827
0.9106321624515827,-0.4297445819050249
-0.4297445819050249,1.3184104304025392
1.3184104304025392,-1.9421795633241699
-1.9421795633241699,-0.18002547542487013
-0.18002547542487013,-1.1870835855168638
-1.1870835855168638,1.7507864120047303
1.7507864120047303,0.670257678099345
0.670257678099345,-0.758590253582021
-0.758590253582021,0.2534775447944782
0.2534775447944782,-1.487431725086365
-1.487431725086365,-0.22271436723039434
-0.22271436723039434,0.39441148749752986
0.39441148749752986,-1.3196213870787434
-1.3196213870787434,0.1466418267481147
0.1466418267481147,0.8568486574197918
0.8568486574197918,-0.9204273771449928
-0.9204273771449928,2.2559554908310195
2.2559554908310195,-0.7062903120578037
-0.7062903120578037,0.2589384799695206
0.2589384799695206,-1.5378205714061124
-1.5378205714061124,0.21414586941296113
0.21414586941296113,2.097581909488993
2.097581909488993,2.046301217927718
2.046301217927718,-1.080105396354198
-1.080105396354198,0.5169927601221674
0.5169927601221674,0.11809117108106236
0.11809117108106236,-0.04527405712333322
-0.04527405712333322,1.072343572090111
1.072343572090111,1.4386788930736059
1.4386788930736059,-0.20516542289065437
-0.20516542289065437,-0.554659934012287
-0.554659934012287,1.3282118016167188
1.3282118016167188,0.33339680339014893
0.33339680339014893,-0.9095291867910433
-0.9095291867910433,1.5795142956880273
1.5795142956880273,0.8927077114456796
0.8927077114456796,0.08994208073051702
0.08994208073051702,0.23971462151305695
0.23971462151305695,-0.15820531293247947
-0.15820531293247947,-0.7338931318638344
-0.7338931318638344,0.6459169762074995
0.6459169762074995,0.2857472925387752
0.2857472925387752,-0.871257919559486
-0.871257919559486,0.7559520491379347
0.7559520491379347,0.6148341709639303
0.6148341709639303,1.0013428222446201
1.0013428222446201,0.12133566939045014
0.12133566939045014,-0.7923843172439269
-0.7923843172439269,0.1367927810506751
0.1367927810506751,-2.7589715417715586
-2.7589715417715586,0.7586794248597539
0.7586794248597539,-1.6315976966786114
-1.6315976966786114,-0.7776946097047007
-0.7776946097047007,-1.4672882697169107
-1.4672882697169107,2.40323432544933
2.40323432544933,-1.4662650221574487
-1.4662650221574487,-1.5041437710464693
-1.5041437710464693,-0.4187353261084726
-0.4187353261084726,1.1158402737738058
1.1158402737738058,-1.2947308717470636
-1.2947308717470636,0.29241172208009913
0.29241172208009913,0.6941648210110748
0.6941648210110748,-1.3006123660266946
-1.3006123660266946,-0.23049909909240657
-0.23049909909240657,-0.5747699278957541
-0.5747699278957541,0.348243445024565
0.348243445024565,0.04762684044454821
0.04762684044454821,-0.1922556372040007
-0.1922556372040007,1.0246849910451146
1.0246849910451146,-0.9038250599306726
-0.9038250599306726,-1.032711001157608
-1.032711001157608,2.3057908842959454
2.3057908842959454,0.10140520566107103
0.10140520566107103,0.036882072669752776
0.036882072669752776,0.3957628483994554
0.3957628483994554,-0.04079093662061842
-0.04079093662061842,-0.9541857515556865
-0.9541857515556865,0.1996193276834428
0.1996193276834428,0.3081780259103224
0.3081780259103224,-1.39675234947989
-1.39675234947989,-1.446764769210651
-1.446764769210651,-0.24410851823030952
-0.24410851823030952,-0.4507295060051542
-0.4507295060051542,0.9937902349580722
0.9937902349580722,0.2371615920769314
0.2371615920769314,-0.39358410287872336
-0.39358410287872336,0.26876515251505995
0.26876515251505995,0.08589055466730337
0.08589055466730337,1.1188329057568962
1.1188329057568962,-2.185144007806092
-2.185144007806092,-0.02575926645021558
-0.02575926645021558,-0.24347213842169416
-0.24347213842169416,0.840515833903914
0.840515833903914,-0.658940786767275
-0.658940786767275,0.7110379784756238
0.7110379784756238,-1.9373829169203607
-1.9373829169203607,-1.3575094798734413
-1.3575094798734413,0.7225432049284141
0.7225432049284141,-1.789864030228085
-1.789864030228085,-1.0992268693371534
-1.0992268693371534,-1.2090248308540552
-1.2090248308540552,-2.7638018322841558
-2.7638018322841558,-0.2804627402786341
-0.2804627402786341,-1.075159821267762
-1.075159821267762,0.46481241313654525
0.46481241313654525,-0.22669679257547184
-0.22669679257547184,-1.6158332845518133
-1.6158332845518133,2.264808743771773
2.264808743771773,0.180582905184991
0.180582905184991,0.4608232935707158
0.4608232935707158,-1.150888758671209
-1.150888758671209,-0.4951184078261093
-0.4951184078261093,0.27831816119140235
0.27831816119140235,-0.6800289743889696
-0.6800289743889696,1.7217390960909122
1.7217390960909122,-3.594421983265015
-3.594421983265015,1.455173299175157
1.455173299175157,1.3989998331655111
1.3989998331655111,2.315582492367027
2.315582492367027,-0.22608701286164418
-0.22608701286164418,-0.20607775771470987
-0.20607775771470987,-0.4925931646478224
-0.4925931646478224,0.4834823878048009
0.4834823878048009,-3.183371351696796
-3.183371351696796,1.061116404422945
1.061116404422945,0.22929311938443883
0.22929311938443883,-2.455746648128704
-2.455746648128704,0.04394068323517463
0.04394068323517463,0.3924903473908007
0.3924903473908007,2.145258646010987
2.145258646010987,1.4371523233503964
1.4371523233503964,1.6626139835290998
1.6626139835290998,-0.03692666805426925
-0.03692666805426925,0.45721723501272277
0.45721723501272277,-0.6350530724143925
-0.6350530724143925,0.8756458242555142
0.8756458242555142,-1.2098988291357582
-1.2098988291357582,0.30115704811163735
0.30115704811163735,1.0263893072894315
1.0263893072894315,-1.307947899373899
-1.307947899373899,-0.5208351205646558
-0.5208351205646558,-0.12885692565716833
-0.12885692565716833,1.7918847742370445
1.7918847742370445,-0.17057853200604897
-0.17057853200604897,-1.6783719637943593
-1.6783719637943593,-0.044696681003677914
-0.044696681003677914,-0.19650808060713418
-0.19650808060713418,-2.1523457773744137
-2.1523457773744137,0.5758120125981214
0.5758120125981214,-0.438359488961687
-0.438359488961687,-1.0415706246089658
-1.0415706246089658,0.6181032744320252
0.6181032744320252,1.1092761905036435
1.1092761905036435,0.6574026320097697
0.6574026320097697,1.6399818600415974
1.6399818600415974,1.6988194007217865
1.6988194007217865,1.7470444745675733
1.7470444745675733,0.10989506656775178
0.10989506656775178,2.114461322606087
2.114461322606087,0.17861743623260126
0.17861743623260126,-1.1555342499745733
-1.1555342499745733,0.007133122099009679
0.007133122099009679,0.5840161720647584
0.5840161720647584,0.16747465732216474
0.16747465732216474,0.10259768312720301
0.10259768312720301,-2.128308719735627
-2.128308719735627,-0.005062088456587015
-0.005062088456587015,-0.36253264382280387
-0.36253264382280387,0.3654061418631807
0.3654061418631807,-0.3888835200134047
-0.3888835200134047,-1.3281790063446577
-1.3281790063446577,-0.21391887878145754
-0.21391887878145754,0.5589658727113525
0.5589658727113525,0.4769400115688678
0.4769400115688678,0.3223482692843942
0.3223482692843942,-0.7128852450919603
-0.7128852450919603,1.5396978330624385
1.5396978330624385,-1.4158697595050087
-1.4158697595050087,0.00983629458037602
0.00983629458037602,-0.46112137425793837
-0.46112137425793837,0.682439435773267
0.682439435773267,0.7760864624073303
0.7760864624073303,-1.9926567538357587
-1.9926567538357587,-0.2996958168433722
-0.2996958168433722,0.944034568181934
0.944034568181934,1.4795330092978716
1.4795330092978716,-1.4331593151647377
-1.4331593151647377,0.7300429779126992
0.7300429779126992,-2.0045648350465566
-2.0045648350465566,-0.2733115961075833
-0.2733115961075833,-0.08225301227338491
-0.08225301227338491,2.0846823716532064
2.0846823716532064,-1.7337963471338116
-1.7337963471338116,-2.324291813681714
-2.324291813681714,1.8371488648649121
1.8371488648649121,-0.1346831667867782
-0.1346831667867782,-1.7550774665012838
-1.7550774665012838,1.0552134086298848
1.0552134086298848,-1.1202012310569824
-1.1202012310569824,-2.5427478244313044
-2.5427478244313044,1.1831309662107232
1.1831309662107232,1.5782887042110316
1.5782887042110316,-0.3394993525150219
-0.3394993525150219,-1.436317362422034
-1.436317362422034,1.5690622966244234
1.5690622966244234,-0.3751638321962024
-0.3751638321962024,-2.1665182396651272
-2.1665182396651272,-1.161355349893783
-1.161355349893783,-0.7254247681766696
-0.7254247681766696,-1.8096087384545005
-1.8096087384545005,-1.3296478367266038
-1.3296478367266038,2.5110163715349985
2.5110163715349985,-0.43967881713829754
-0.43967881713829754,-3.5446021945420565
-3.5446021945420565,-0.1480434268343369
-0.1480434268343369,0.11854266030652306
0.11854266030652306,1.2368283625447862
1.2368283625447862,-0.01733666390008394
-0.01733666390008394,0.3291578371725055
0.3291578371725055,-1.1847701734798501
-1.1847701734798501,-0.20208412629408018
-0.20208412629408018,0.868390991657327
0.868390991657327,-1.1659992726329973
-1.1659992726329973,-0.8957812323624735
-0.8957812323624735,2.205005432072829
2.205005432072829,0.13787172264275813
0.13787172264275813,-0.7626861482076811
-0.7626861482076811,-1.3698003824065423
-1.3698003824065423,-0.09953228758838131
-0.09953228758838131,1.3603908900960742
1.3603908900960742,0.6786480306039755
0.6786480306039755,-2.304892748829751
-2.304892748829751,2.9875846399003727
2.9875846399003727,0.468266016969071
0.468266016969071,1.213705644824924
1.213705644824924,0.3510935362846307
0.3510935362846307,-1.7875945328368463
-1.7875945328368463,-0.2543328931610472
-0.2543328931610472,0.9955427976790323
0.9955427976790323,-0.9321780987951899
-0.9321780987951899,0.018246202579154786
0.018246202579154786,1.370779027413073
1.370779027413073,-1.9517774785076953
-1.9517774785076953,0.042514087498045666
0.042514087498045666,0.491561302439276
0.491561302439276,0.4951547770364846
0.4951547770364846,-0.7302848226952631
-0.7302848226952631,1.2883769212162055
1.2883769212162055,-0.8849016585882389
-0.8849016585882389,0.21769235831817382
0.21769235831817382,1.1466678509542458
1.1466678509542458,-2.8654060684534985
-2.8654060684534985,1.2560657296290332
1.2560657296290332,-2.0117504806635074
-2.0117504806635074,-0.9470948053360612
-0.9470948053360612,-2.746485338602339
-2.746485338602339,-1.0884282433562968
-1.0884282433562968,1.3991170513833986
1.3991170513833986,1.594881189216697
1.594881189216697,1.586484484994818
1.586484484994818,3.256949076910348
3.256949076910348,-2.53829290997187
-2.53829290997187,1.488696155858439
1.488696155858439,0.0018409456906190384
0.0018409456906190384,1.1315930261490206
1.1315930261490206,-0.22029500659844006
-0.22029500659844006,-0.7709869341739499
-0.7709869341739499,0.7473335698808822
0.7473335698808822,0.6386735936628589
0.6386735936628589,-1.2026086844587234
-1.2026086844587234,0.37603810539364824
0.37603810539364824,-0.02251204496661558
-0.02251204496661558,-0.6970163007384396
-0.6970163007384396,0.05617453019869539
0.05617453019869539,0.1047573822543982
0.1047573822543982,0.15262577852219852
0.15262577852219852,-2.6538705425343476
-2.6538705425343476,-1.4034593687870556
-1.4034593687870556,-0.8338205449777363
-0.8338205449777363,-1.3114251116918667
-1.3114251116918667,1.1924092320195372
1.1924092320195372,-0.03583025219540271
-0.03583025219540271,1.133779741069941
1.133779741069941,1.8087221095265937
1.8087221095265937,0.8663044005928077
0.8663044005928077,2.6899889294760473
2.6899889294760473,-0.5506479130007161
-0.5506479130007161,0.17984174465156294
0.17984174465156294,-2.5067535789488495
-2.5067535789488495,1.6547883012816809
1.6547883012816809,0.8477041930077446
0.8477041930077446,0.06577335479273558
0.06577335479273558,0.24405800976228814
0.24405800976228814,0.6830030299936534
0.6830030299936534,-0.6045959517911733
-0.6045959517911733,2.023296702134952
2.023296702134952,0.8049299252414618
0.8049299252414618,-1.0490864347486175
-1.0490864347486175,0.6067539118802029
0.6067539118802029,-0.4671301634663074
-0.4671301634663074,-0.7367503409299401
-0.7367503409299401,-0.5129025045219103
-0.5129025045219103,1.6117911796412512
1.6117911796412512,-2.629282549687278
-2.629282549687278,-0.09622673332604163
-0.09622673332604163,0.15662474597919135
0.15662474597919135,0.9295051000683151
0.9295051000683151,0.13555760127622501
0.13555760127622501,-1.0636598093172231
-1.0636598093172231,1.244267021843494
1.244267021843494,1.5319748322217164
1.5319748322217164,-0.6427700613719693
-0.6427700613719693,-0.03781421757162624
-0.03781421757162624,0.12938181733873785
0.12938181733873785,0.590808807805617
0.590808807805617,0.06212816375667791
0.06212816375667791,0.10234855068705041
0.10234855068705041,-0.7032030462171914
-0.7032030462171914,-1.6383786717090891
-1.6383786717090891,-0.33471340131805105
-0.33471340131805105,-0.6947765255073073
-0.6947765255073073,-0.5201662721068971
-0.5201662721068971,-0.4617944891059518
-0.4617944891059518,1.0029723354431765
1.0029723354431765,3.1834637294321917
3.1834637294321917,-0.3625829210547476
-0.3625829210547476,-0.46799812767867915
-0.46799812767867915,-1.4923151609722674
-1.4923151609722674,0.6598837438026035
0.6598837438026035,1.5799491300976465
1.5799491300976465,-0.6515641047014368
-0.6515641047014368,-2.586087380977685
-2.586087380977685,0.6900260157992918
0.6900260157992918,1.8617558747541252
1.8617558747541252,1.1213608697202901
1.1213608697202901,-0.3464972591042354
-0.3464972591042354,-0.14100001040256396
-0.14100001040256396,0.03213422530050923
0.03213422530050923,-0.17436465409153815
-0.17436465409153815,1.4158380860185087
1.4158380860185087,0.0703379343166997
0.0703379343166997,-1.0888515077188234
-1.0888515077188234,0.9919607004724349
0.9919607004724349,-0.7571347885472127
-0.7571347885472127,-0.34631634383944715
-0.34631634383944715,-1.1836895729702455
-1.1836895729702455,-0.6386510663566385
-0.6386510663566385,0.0018749371051862767
0.0018749371051862767,0.7724789348581489
0.7724789348581489,-1.4763429468259914
-1.4763429468259914,0.46513185505523685
0.46513185505523685,-0.5946794716597543
-0.5946794716597543,-1.0134958913170653
-1.0134958913170653,-1.0217503673253774
-1.0217503673253774,-0.35523923296416154
-0.35523923296416154,-0.22886223110448867
-0.22886223110448867,-0.979238456193252
-0.979238456193252,-2.1084070775612966
-2.1084070775612966,1.0918469262464372
1.0918469262464372,-0.17523909648371305
-0.17523909648371305,-0.09053467019131067
-0.09053467019131067,0.8981931011925168
0.8981931011925168,-2.2957369824144513
-2.2957369824144513,1.3574826455984403
1.3574826455984403,1.6241524363710877
1.6241524363710877,1.3771708017488107
1.3771708017488107,2.588805030382732
2.588805030382732,0.5311612003437969
0.5311612003437969,-0.16316182083933967
-0.16316182083933967,-0.6474545696950531
-0.6474545696950531,0.2327430191923127
0.2327430191923127,1.2139073231141426
1.2139073231141426,-0.9339786932180707
-0.9339786932180707,0.2843220263016382
0.2843220263016382,-0.15212965347717952
-0.15212965347717952,0.8646147352760433
0.8646147352760433,0.011887342522001939
0.011887342522001939,-0.6446942112249032
-0.6446942112249032,-0.17927020396453236
-0.17927020396453236,0.10294221270511453
0.10294221270511453,-0.4035215929103516
-0.4035215929103516,0.1558177248218356
0.1558177248218356,0.638204590511817
0.638204590511817,-0.8184111679589259
-0.8184111679589259,-1.4215352397888381
-1.4215352397888381,0.12603827453719813
0.12603827453719813,-0.1585822556858475
-0.1585822556858475,5.091773776755866
5.091773776755866,-0.49990141408977345
-0.49990141408977345,1.0502657439725949
1.0502657439725949,-0.16333702217454757
-0.16333702217454757,-1.2459009194297646
-1.2459009194297646,-0.98529709062289
-0.98529709062289,-1.749014816769209
-1.749014816769209,1.988345867111791
1.988345867111791,0.4267487148545021
0.4267487148545021,-1.351288762173074
-1.351288762173074,0.582773470860022
0.582773470860022,1.8191302511115817
1.8191302511115817,-1.774691865005535
-1.774691865005535,-1.911311077665161
-1.911311077665161,0.17567548598485722
0.17567548598485722,-1.1446869954855092
-1.1446869954855092,3.4360171514334947
3.4360171514334947,1.5864452364658612
1.5864452364658612,0.6608500667269243
0.6608500667269243,-0.15545196245501064
-0.15545196245501064,-0.3406924356020534
-0.3406924356020534,1.3443206050145238
1.3443206050145238,-0.2143616418823504
-0.2143616418823504,-0.14098386973406535
-0.14098386973406535,0.28693991887739223
0.28693991887739223,0.1401318836707592
0.1401318836707592,0.06221009478972632
0.06221009478972632,-0.3743622479078554
-0.3743622479078554,-1.033991166631714
-1.033991166631714,-0.5062726869275519
-0.5062726869275519,-0.8961849253592614
-0.8961849253592614,1.2432459029912364
1.2432459029912364,0.0033888942138574516
0.0033888942138574516,-0.7902263678977131
-0.7902263678977131,-0.6188144908080295
-0.6188144908080295,-0.14659657632852194
-0.14659657632852194,-0.15859614818992762
-0.15859614818992762,0.1168220577420825
0.1168220577420825,-0.47079355470270895
-0.47079355470270895,-0.4691836011322631
-0.4691836011322631,1.2588992638499201
1.2588992638499201,0.30652217970395407
0.30652217970395407,0.8332467351549903
0.8332467351549903,-0.22182958392472943
-0.22182958392472943,-0.3467743519717744
-0.3467743519717744,-0.3088970567363485
-0.3088970567363485,-0.23281015552197062
-0.23281015552197062,-0.46923271344433465
-0.46923271344433465,-0.67655863346626
-0.67655863346626,0.37446072549767767
0.37446072549767767,0.7854329503054851
0.7854329503054851,0.6902296238794632
0.6902296238794632,-2.2696183545010773
-2.2696183545010773,0.7863681039291227
0.7863681039291227,1.333452087267124
1.333452087267124,-0.48157546739052737
-0.48157546739052737,1.107432279714406
1.107432279714406,-1.7247950803835896
-1.7247950803835896,-1.4403755284854134
-1.4403755284854134,-1.034862175504958
-1.034862175504958,3.9304858168883094
3.9304858168883094,1.3098958255415134
1.3098958255415134,-0.8528389478844517
-0.8528389478844517,-0.05587881914753304
-0.05587881914753304,-0.7596912914387952
-0.7596912914387952,-1.1211488723357903
-1.1211488723357903,0.48850567183322424
0.48850567183322424,0.8475656919311808
0.8475656919311808,-0.18939988982333406
-0.18939988982333406,1.5231672149228792
1.5231672149228792,-2.1460852861622293
-2.1460852861622293,-0.4728895835249389
-0.4728895835249389,0.25346514844879836
0.25346514844879836,-0.6936685625646954
-0.6936685625646954,-0.6943170753429004
-0.6943170753429004,-0.30733351479961746
-0.30733351479961746,0.7268742578449625
0.7268742578449625,-1.8595586577994612
-1.8595586577994612,0.25988857043888547
0.25988857043888547,0.15761462144064162
0.15761462144064162,-0.5792991836043262
-0.5792991836043262,0.2670088845159298
0.2670088845159298,1.057047478492812
1.057047478492812,-0.7838747613584809
-0.7838747613584809,0.511053524992684
0.511053524992684,0.5997573272849003
0.5997573272849003,-1.3554743459412641
-1.3554743459412641,0.13064398075411604
0.13064398075411604,0.758493534270495
0.758493534270495,0.667645442534702
0.667645442534702,-0.2605930008985129
-0.2605930008985129,0.24050537162547383
0.24050537162547383,-0.32628395179906167
-0.32628395179906167,0.20957987411369794
0.20957987411369794,-0.08140333907480664
-0.08140333907480664,-0.8819459097525505
-0.8819459097525505,-0.5631292166777485
-0.5631292166777485,-0.4077429210753198
-0.4077429210753198,0.3944564047598503
0.3944564047598503,-0.8643914084280397
-0.8643914084280397,-0.8603758433040415
-0.8603758433040415,0.15014909815829747
0.15014909815829747,-0.23298065503183873
-0.23298065503183873,-0.8026797243559703
-0.8026797243559703,0.2820532525936416
0.2820532525936416,-0.7181496831165708
-0.7181496831165708,-1.8008457533055966
-1.8008457533055966,0.5163047325795131
0.5163047325795131,0.4645805002630395
0.4645805002630395,0.17931621979715762
0.17931621979715762,-1.3466016949875885
-1.3466016949875885,0.4463042109001406
0.4463042109001406,-0.79612283049622
-0.79612283049622,-0.17816698923044005
-0.17816698923044005,-0.9601392540655377
-0.9601392540655377,-0.18638544683782104
-0.18638544683782104,-1.2697070834250261
-1.2697070834250261,0.10788991821197966
0.10788991821197966,-1.2620372609586288
-1.2620372609586288,1.2884569744286485
1.2884569744286485,-0.34537902620554756
-0.34537902620554756,1.27194179398938
1.27194179398938,-0.6205958897178596
-0.6205958897178596,0.11885514938617575
0.11885514938617575,2.407253932773831
2.407253932773831,-0.18018071585433343
-0.18018071585433343,-2.9894164998521564
-2.9894164998521564,1.0004460105976152
1.0004460105976152,-1.3705105517142666
-1.3705105517142666,0.0169589276556402
0.0169589276556402,0.028913489415775553
0.028913489415775553,1.2542389050420362
1.2542389050420362,-1.1380692837844104
-1.1380692837844104,0.5976826880186873
0.5976826880186873,0.018354356096902395
0.018354356096902395,-0.2635365372438229
-0.2635365372438229,-0.19558415849835187
-0.19558415849835187,0.20600464672851404
0.20600464672851404,0.09834686797395156
0.09834686797395156,-1.5749198475938626
-1.5749198475938626,0.7301085811202789
0.7301085811202789,1.1421452573163324
1.1421452573163324,-0.02224207868882721
-0.02224207868882721,0.471229229600806
0.471229229600806,-0.2113897627066698
-0.2113897627066698,1.3264992713247072
1.3264992713247072,-0.4376684864083885
-0.4376684864083885,0.020181605851531306
0.020181605851531306,-0.6945255969213644
-0.6945255969213644,1.248806824186749
1.248806824186749,-1.0342623274152656
-1.0342623274152656,0.19267803017597118
0.19267803017597118,-1.6203770585923125
-1.6203770585923125,-0.7146921733575601
-0.7146921733575601,-0.5407663461965482
-0.5407663461965482,-1.552692377097
-1.552692377097,-0.5752047515420067
-0.5752047515420067,0.5715285570401424
0.5715285570401424,-0.7437437577631218
-0.7437437577631218,0.8243759265033411
0.8243759265033411,-0.6325197678034238
-0.6325197678034238,-0.9038881796922942
-0.9038881796922942,-0.032969060520703246
-0.032969060520703246,-0.46577139761838376
-0.46577139761838376,-0.14679452410367252
-0.14679452410367252,0.11644232211554768
0.11644232211554768,-2.4815219540089886
-2.4815219540089886,1.7831035915124536
1.7831035915124536,0.9754313649849878
0.9754313649849878,-0.029993172957410302
-0.029993172957410302,1.7819336669760328
1.7819336669760328,0.11899760097677825
0.11899760097677825,0.8131151269330873
0.8131151269330873,-0.6782109914909488
-0.6782109914909488,-0.43072985558001065
-0.43072985558001065,0.40194063378931594
0.40194063378931594,-1.5314865304328236
-1.5314865304328236,0.9849436625719854
0.9849436625719854,-1.4479232156172044
-1.4479232156172044,-0.4932844474999576
-0.4932844474999576,-0.11581612370801121
-0.11581612370801121,-1.4078411862344367
-1.4078411862344367,0.29359877821718405
0.29359877821718405,-1.4643722647245239
-1.4643722647245239,0.6129052205955071
0.6129052205955071,-0.8893651375519875
-0.8893651375519875,-0.7168862003612898
-0.7168862003612898,-0.30035881230660966
-0.30035881230660966,1.9273996809440856
1.9273996809440856,-2.420663074323905
-2.420663074323905,-0.07113814399347426
-0.07113814399347426,0.9899718998201942
0.9899718998201942,-0.2333081913068643
-0.2333081913068643,0.23323694260107475
0.23323694260107475,-1.3789137517730046
-1.3789137517730046,-1.3023425818634429
-1.3023425818634429,1.2753554879202091
1.2753554879202091,-1.0471570225794335
-1.0471570225794335,0.45923940065788993
0.45923940065788993,-0.345115666292256
-0.345115666292256,0.5947351873475196
0.5947351873475196,-0.10749683470542637
-0.10749683470542637,-0.7270082911000768
-0.7270082911000768,1.1972705711065703
1.1972705711065703,0.36441381470639483
0.36441381470639483,1.6189724281436206
1.6189724281436206,0.24904816012237788
0.24904816012237788,1.368703372431633
1.368703372431633,-1.106557728613123
-1.106557728613123,-0.7437006805538743
-0.7437006805538743,-0.9931851033673764
-0.9931851033673764,1.0929032265025427
1.0929032265025427,1.2238077168792216
1.2238077168792216,-0.5297039593372405
-0.5297039593372405,1.1187916500774968
1.1187916500774968,-0.4757604637359496
-0.4757604637359496,-0.10917859397505061
-0.10917859397505061,-0.07778472852564851
-0.07778472852564851,1.4479474926711744
1.4479474926711744,-0.4650606275719988
-0.4650606275719988,-0.723017151910281
-0.723017151910281,0.45995709025452747
0.45995709025452747,0.6926788593920598
0.6926788593920598,0.024566743354239116
0.024566743354239116,0.7602189685045849
0.7602189685045849,-0.2819670675087574
-0.2819670675087574,-0.16339029638647173
-0.16339029638647173,-0.5978922728884993
-0.5978922728884993,-1.2191838633882148
-1.2191838633882148,-2.1579254911333168
-2.1579254911333168,0.991845844874216
0.991845844874216,-0.751049165153726
-0.751049165153726,1.250409149040901
1.250409149040901,-0.6031590743678648
-0.6031590743678648,0.10840232225124065
0.10840232225124065,-0.6530852537694809
-0.6530852537694809,-1.62849786273836
-1.62849786273836,-0.5440871616311458
-0.5440871616311458,-2.4749383322989864
-2.4749383322989864,-0.2998418037854979
-0.2998418037854979,0.5853735725873269
0.5853735725873269,-0.5547270469301214
-0.5547270469301214,-0.24846234713844118
-0.24846234713844118,1.1825082489031957
1.1825082489031957,-0.3409796368117839
-0.3409796368117839,-0.40103874047323707
-0.40103874047323707,-1.3104348836665045
-1.3104348836665045,-0.17806818251205309
-0.17806818251205309,0.13363709118420605
0.13363709118420605,0.848825480511158
0.848825480511158,0.44289271683074144
0.44289271683074144,0.6844035027187506
0.6844035027187506,1.5510945266882166
1.5510945266882166,0.5903230190401902
0.5903230190401902,-1.4153903256791671
-1.4153903256791671,0.23355730345382136
0.23355730345382136,0.23931351600048628
0.23931351600048628,1.6136538120607897
1.6136538120607897,0.7598311035454066
0.7598311035454066,1.2419706801914057
1.2419706801914057,-0.2875240371502431
-0.2875240371502431,0.13503141984763153
0.13503141984763153,0.6757354843247602
0.6757354843247602,-0.11221232003417501
-0.11221232003417501,0.4288525512749587
0.4288525512749587,1.2505174332832265
1.2505174332832265,0.49595465925420973
0.49595465925420973,0.020049238026500348
0.020049238026500348,-0.6331017625643377
-0.6331017625643377,-0.47365450033135464
-0.47365450033135464,0.07589853791798785
0.07589853791798785,-0.792412431690549
-0.792412431690549,-0.4611635779741866
-0.4611635779741866,-0.1609121019533986
-0.1609121019533986,-0.20512402292813386
-0.20512402292813386,0.5914232935680002
0.5914232935680002,0.05892722679406701
0.05892722679406701,0.06978365259901835
0.06978365259901835,-0.25455058336793546
-0.25455058336793546,-0.1489153398278114
-0.1489153398278114,0.5394310992364427
0.5394310992364427,0.24641848847322692
0.24641848847322692,-0.9293945995385511
-0.9293945995385511,-0.689559391069178
-0.689559391069178,0.4661295466671289
0.4661295466671289,0.35633258771449766
0.35633258771449766,-0.46428929884965703
-0.46428929884965703,0.18946082737748107
0.18946082737748107,0.26194971977225173
0.26194971977225173,0.6418334943762877
0.6418334943762877,1.042585551134468
1.042585551134468,0.10104958869992484
0.10104958869992484,1.7233536491758537
1.7233536491758537,0.238601243960468
0.238601243960468,0.8692673220431311
0.8692673220431311,1.1970267653904756
1.1970267653904756,-0.3360008066137726
-0.3360008066137726,-0.4036450867773169
-0.4036450867773169,0.3172348801454532
0.3172348801454532,-0.19316635815217387
-0.19316635815217387,-0.1768195591841763
-0.1768195591841763,-1.255065860118563
-1.255065860118563,-0.42417302535264134
-0.42417302535264134,-0.5437353419779977
-0.5437353419779977,0.04460272156408684
0.04460272156408684,-0.3856492704676815
-0.3856492704676815,-0.1934782944179694
-0.1934782944179694,-0.03196569070787965
-0.03196569070787965,-0.09751020715516732
-0.09751020715516732,-1.6326118287860256
-1.6326118287860256,-0.8171951693950446
-0.8171951693950446,0.12059261908321585
0.12059261908321585,0.8669084801664385
0.8669084801664385,0.6302119296491702
0.6302119296491702,-0.7843805940963562
-0.7843805940963562,0.3527375043463355
0.3527375043463355,-1.3098188789696705
-1.3098188789696705,0.3404719814722743
0.3404719814722743,0.07705572863725073
0.07705572863725073,0.7488592784203097
0.7488592784203097,-0.6951705505167988
-0.6951705505167988,-0.24325885592686425
-0.24325885592686425,0.2888023795469601
0.2888023795469601,-1.604759203742896
-1.604759203742896,0.46197806882573933
0.46197806882573933,1.4890585876101516
1.4890585876101516,1.796480939999642
1.796480939999642,1.8141845914040695
1.8141845914040695,0.8944013202359381
0.8944013202359381,2.3141568488076607
2.3141568488076607,-0.7695829226301655
-0.7695829226301655,-0.20484413552561323
-0.20484413552561323,0.06516821500840145
0.06516821500840145,0.35635658066546416
0.35635658066546416,0.7060590693704893
0.7060590693704893,-0.19673663050023474
-0.19673663050023474,0.2891743208866764
0.2891743208866764,0.10930301379044603
0.10930301379044603,-0.5824224607761597
-0.5824224607761597,0.40061317973910193
0.40061317973910193,1.4104766816038945
1.4104766816038945,-0.0833779991383484
-0.0833779991383484,-0.9955599957873169
-0.9955599957873169,-0.5903424054100874
-0.5903424054100874,0.7291464647068916
0.7291464647068916,-0.468164838216057
-0.468164838216057,1.1320107188586508
1.1320107188586508,0.40181371254081255
0.40181371254081255,0.3342520491846427
0.3342520491846427,-0.4116970955584045
-0.4116970955584045,-0.4314863280324958
-0.4314863280324958,-0.18911629183955714
-0.18911629183955714,-0.1229532196895132
-0.1229532196895132,-0.11254982331440494
-0.11254982331440494,0.7753657605204322
0.7753657605204322,-0.7540069029592784
-0.7540069029592784,0.5880444869755154
0.5880444869755154,-1.2128594054669048
-1.2128594054669048,-1.1786733994395986
-1.1786733994395986,-0.5064261140041552
-0.5064261140041552,-1.2620264549604658
-1.2620264549604658,1.3986643478412488
1.3986643478412488,-0.5967297200766
-0.5967297200766,1.420901045683915
1.420901045683915,-0.11004499805772294
-0.11004499805772294,-0.02627306243520432
-0.02627306243520432,0.6728472503410611
0.6728472503410611,-0.9963856754846128
-0.9963856754846128,0.9219347806978898
0.9219347806978898,0.09000616379136944
0.09000616379136944,-0.09214563768737458
-0.09214563768737458,-0.7316319891612887
-0.7316319891612887,-2.783724273126726
-2.783724273126726,0.5156371225187687
0.5156371225187687,-0.21836176801273333
-0.21836176801273333,-0.6368380414823546
-0.6368380414823546,-0.983227043816383
-0.983227043816383,-0.03715944441686485
-0.03715944441686485,-0.3921089768320029
-0.3921089768320029,0.48122634669754316
0.48122634669754316,-1.6895088652659052
-1.6895088652659052,-0.15993196031039394
-0.15993196031039394,0.35487989692208965
0.35487989692208965,-0.5309758141128746
-0.5309758141128746,1.1334196697102241
1.1334196697102241,-0.7827433865464983
-0.7827433865464983,1.92325051229173
1.92325051229173,2.4126126779403454
2.4126126779403454,1.159262829345228
1.159262829345228,2.483223382336986
2.483223382336986,-0.5259200126275408
-0.5259200126275408,0.05965908618814781
0.05965908618814781,-1.45489626712545
-1.45489626712545,0.09103450054608096
0.09103450054608096,-0.00693195706954044
-0.00693195706954044,0.8212979212153609
0.8212979212153609,-1.6771180764463514
-1.6771180764463514,-0.3652444763285753
-0.3652444763285753,-0.10590443817687278
-0.10590443817687278,1.0824310909286041
1.0824310909286041,1.676663928815745
1.676663928815745,1.725780085021464
1.725780085021464,-0.006133686779627456
-0.006133686779627456,1.0060623538921913
1.0060623538921913,-0.7794347196466981
-0.7794347196466981,-0.559546235936325
-0.559546235936325,0.9266256325524178
0.9266256325524178,0.9686375076977433
0.9686375076977433,0.5946824253678138
0.5946824253678138,0.5131417623912646
0.5131417623912646,0.43375371495069887
0.43375371495069887,0.3248485797051867
0.3248485797051867,0.476255180394409
0.476255180394409,-0.4866252245365518
-0.4866252245365518,1.7070324139973265
1.7070324139973265,-0.37555219461185113
-0.37555219461185113,0.029422315441295407
0.029422315441295407,-0.13503477602775704
-0.13503477602775704,-1.2529410311289633
-1.2529410311289633,-0.6276538729655139
-0.6276538729655139,0.8302793533555597
0.8302793533555597,0.8099254444080674
0.8099254444080674,0.11958895202871116
0.11958895202871116,-1.1688292036857493
-1.1688292036857493,1.0023156876134733
1.0023156876134733,1.321067241637923
1.321067241637923,0.4089283017943348
0.4089283017943348,3.2657219150751744
3.2657219150751744,-0.07616498545881764
-0.07616498545881764,0.6926573433879694
0.6926573433879694,-1.9939360776811677
-1.9939360776811677,-0.5680265979645374
-0.5680265979645374,-2.0386433127354016
-2.0386433127354016,-1.0343955270055825
-1.0343955270055825,-0.16078126372425722
-0.16078126372425722,1.4904791614458999
1.4904791614458999,-0.4319760622789853
-0.4319760622789853,-0.30013681688220345
-0.30013681688220345,-0.04676698349917489
-0.04676698349917489,-1.4976475829351437
-1.4976475829351437,-0.792276668930068
-0.792276668930068,1.1705705640726463
1.1705705640726463,-0.7457635249037512
-0.7457635249037512,0.06499320464469648
0.06499320464469648,0.06388256546724297
0.06388256546724297,0.26357167919369395
0.26357167919369395,-0.6827029296946616
-0.6827029296946616,-2.4766058620232183
-2.4766058620232183,1.909311741521509
1.909311741521509,0.6317482562222018
0.6317482562222018,1.4704457791307002
1.4704457791307002,-1.2423881181940395
-1.2423881181940395,0.9171021728172151
0.9171021728172151,-0.16895158300251883
-0.16895158300251883,2.004516381367193
2.004516381367193,3.27601761452011
3.27601761452011,-0.5259475015083991
-0.5259475015083991,0.5385296101787113
0.5385296101787113,-1.4667862564206458
-1.4667862564206458,0.19276257264237806
0.19276257264237806,-0.16415574768977004
-0.16415574768977004,0.15280359661495582
0.15280359661495582,0.4136223007546367
0.4136223007546367,0.4551128213643642
0.4551128213643642,-0.7277477903731769
-0.7277477903731769,-0.7464120124909007
-0.7464120124909007,1.4372000879004772
1.4372000879004772,-0.7099036277053963
-0.7099036277053963,-0.4965825614470681
-0.4965825614470681,-0.5867401971175359
-0.5867401971175359,-0.6263496935390216
-0.6263496935390216,0.27390234046402717
0.27390234046402717,0.29149962993450995
0.29149962993450995,1.3951449110894185
1.3951449110894185,0.8479454054218102
0.8479454054218102,0.028544165552593214
0.028544165552593214,0.3661714562512736
0.3661714562512736,0.6144450344142347
0.6144450344142347,-0.6499338190784989
-0.6499338190784989,-1.0973023693867703
-1.0973023693867703,-0.09072719869582148
-0.09072719869582148,-2.325350695873969
-2.325350695873969,0.7820992481037129
0.7820992481037129,0.15260297887308594
0.15260297887308594,-0.9655912254015887
-0.9655912254015887,-0.12819755022218057
-0.12819755022218057,0.7811980210185107
0.7811980210185107,-0.4910024559958882
-0.4910024559958882,0.4352509342481947
0.4352509342481947,-2.983483785487155
-2.983483785487155,-0.3442068004992565
-0.3442068004992565,-1.2670795352553137
-1.2670795352553137,-0.4424937920917579
-0.4424937920917579,0.23902135723663445
0.23902135723663445,1.4424867892857154
1.4424867892857154,-0.5559933245529791
-0.5559933245529791,0.2777431439716085
0.2777431439716085,0.3650765327104779
0.3650765327104779,-0.7178306724651748
-0.7178306724651748,0.3702031436424203
0.3702031436424203,0.569957494753397
0.569957494753397,-0.7510573210450163
-0.7510573210450163,-0.2185960756742314
-0.2185960756742314,0.0984611535843133
0.0984611535843133,-1.1932590978946451
-1.1932590978946451,-0.4550486699591113
-0.4550486699591113,-0.42945533311698136
-0.42945533311698136,1.481328746630448
1.481328746630448,0.34396062210959605
0.34396062210959605,-0.5145502502418949
-0.5145502502418949,0.7301048833595453
0.7301048833595453,0.1278551124720532
0.1278551124720532,1.0304722850130463
1.0304722850130463,0.3816825364968579
0.3816825364968579,-1.3876834849644402
-1.3876834849644402,0.145694087503912
0.145694087503912,2.983614941642609
2.983614941642609,1.4103170154935247
1.4103170154935247,0.14780297122672753
0.14780297122672753,1.2400451934446919
1.2400451934446919,0.25629441196309666
0.25629441196309666,1.1973268996970798
1.1973268996970798,0.4484804998834541
0.4484804998834541,0.23192122002106094
0.23192122002106094,0.43345694262846557
0.43345694262846557,0.7615687186042005
0.7615687186042005,-0.7346431929363952
-0.7346431929363952,1.4818708313451583
1.4818708313451583,-0.7895837532754943
-0.7895837532754943,-1.021079945112242
-1.021079945112242,-0.300378107412951
-0.300378107412951,0.37733164339827024
0.37733164339827024,-1.4761682899500992
-1.4761682899500992,-1.0663290133694863
-1.0663290133694863,0.020597435713448832
0.020597435713448832,-0.2221355289158817
-0.2221355289158817,-0.34985296263950366
-0.34985296263950366,-2.121862330022951
-2.121862330022951,-0.6818158802241596
-0.6818158802241596,-0.16587641839970968
-0.16587641839970968,0.40650222982854
0.40650222982854,-2.149758977419966
-2.149758977419966,0.5438088224379157
0.5438088224379157,-0.3531122266645066
-0.3531122266645066,-0.00017424792485247533
-0.00017424792485247533,-1.957157146938631
-1.957157146938631,2.08125742201477
2.08125742201477,0.21022702724176193
0.21022702724176193,0.04565484263362324
0.04565484263362324,-1.7483443399624188
-1.7483443399624188,0.7904592723170679
0.7904592723170679,-1.2239839585029737
-1.2239839585029737,-1.8078644671479558
-1.8078644671479558,0.09162061527478403
0.09162061527478403,1.407225004466749
1.407225004466749,1.687790848590976
1.687790848590976,0.903293556886758
0.903293556886758,-0.8451725765419338
-0.8451725765419338,1.7960660466175664
1.7960660466175664,-3.6752912764664454
-3.6752912764664454,0.27797983936927056
0.27797983936927056,-0.47629024121334385
-0.47629024121334385,-0.06697214312999727
-0.06697214312999727,1.5057758618899972
1.5057758618899972,-1.7109181638733983
-1.7109181638733983,1.898971434960619
1.898971434960619,-0.24901074296750103
-0.24901074296750103,-0.8400436353523199
-0.8400436353523199,2.0284751170501476
2.0284751170501476,-1.1063309185755097
-1.1063309185755097,0.4741059149517166
0.4741059149517166,0.9053294635708871
0.9053294635708871,-0.3308841812531067
-0.3308841812531067,-0.7936543468535439
-0.7936543468535439,-1.104220626891141
-1.104220626891141,-1.4453783028651073
-1.4453783028651073,0.2635128740390946
0.2635128740390946,-0.994893583544934
-0.994893583544934,-0.4285042699484174
-0.4285042699484174,-1.6354494229619365
-1.6354494229619365,1.4328821146674964
1.4328821146674964,-0.9748497859800394
-0.9748497859800394,-1.5639024814830609
-1.5639024814830609,-1.2443029011737223
-1.2443029011737223,2.1673066664613527
2.1673066664613527,0.5775736368528507
0.5775736368528507,0.6030282459642897
0.6030282459642897,-0.27541503800908296
-0.27541503800908296,-0.03306256107360518
-0.03306256107360518,1.8391853468219161
1.8391853468219161,-0.41899493552291167
-0.41899493552291167,-1.9542287652534962
-1.9542287652534962,1.912963525015027
1.912963525015027,-0.41237462816965803
-0.41237462816965803,-0.0956187521692916
-0.0956187521692916,-0.4668107999162177
-0.4668107999162177,0.38110146584945515
0.38110146584945515,-1.7913729008515997
-1.7913729008515997,-0.16694792973479058
-0.16694792973479058,0.10376502803673819
0.10376502803673819,0.47876504320612584
0.47876504320612584,-0.40207725981963327
-0.40207725981963327,0.42347181941449286
0.42347181941449286,-0.26152155337138944
-0.26152155337138944,-0.5475165637162416
-0.5475165637162416,-0.4107934857860018
-0.4107934857860018,-0.02230950328510178
-0.02230950328510178,-1.0773045555229834
-1.0773045555229834,-1.1871657871002501
-1.1871657871002501,-1.1771638788864358
-1.1771638788864358,-0.3100762208924263
-0.3100762208924263,1.4256675044181601
1.4256675044181601,0.20040618376361785
0.20040618376361785,0.6262682510099858
0.6262682510099858,0.31091087960774055
0.31091087960774055,1.1922990957061255
1.1922990957061255,-0.7759256807352605
-0.7759256807352605,-0.7875832065097752
-0.7875832065097752,-2.4602222723932523
-2.4602222723932523,-0.3491356866446823
-0.3491356866446823,-0.7152541406418423
-0.7152541406418423,-0.7365133245339032
-0.7365133245339032,0.8230621586364365
0.8230621586364365,-0.5737693348010512
-0.5737693348010512,1.216885422969468
1.216885422969468,0.7232683551955256
0.7232683551955256,-0.8790747775912873
-0.8790747775912873,-2.134917969659598
-2.134917969659598,0.12881995283030281
0.12881995283030281,-4.782967205085821
-4.782967205085821,-1.4446395214820051
-1.4446395214820051,0.5307035040349231
0.5307035040349231,1.1846308935272527
1.1846308935272527,1.3952778930239709
1.3952778930239709,-1.0680325985884562
-1.0680325985884562,2.4518636580409447
2.4518636580409447,1.0395856922681255
1.0395856922681255,2.695536753564845
2.695536753564845,-0.0932260863182484
-0.0932260863182484,-0.7518370652883318
-0.7518370652883318,-0.9900895877082772
-0.9900895877082772,1.1145106942344023
1.1145106942344023,0.13848619931608103
0.13848619931608103,0.13454932396029923
0.13454932396029923,-0.659443914618295
-0.659443914618295,0.4039240271300718
0.4039240271300718,-0.7164332009780394
-0.7164332009780394,-2.164303917855633
-2.164303917855633,-0.4820919450852191
-0.4820919450852191,4.699207487528568
4.699207487528568,0.9334804269697149
0.9334804269697149,-0.07752207315917721
-0.07752207315917721,-0.39541903571988424
-0.39541903571988424,-0.11638424670163545
-0.11638424670163545,3.512473048613267
3.512473048613267,-2.805356461522671
-2.805356461522671,0.14922560485092598
0.14922560485092598,0.05158726464398953
0.05158726464398953,1.4236037561679598
1.4236037561679598,2.3206896851300693
2.3206896851300693,-0.7763402750748755
-0.7763402750748755,-1.7435215172533345
-1.7435215172533345,-0.6121848543151538
-0.6121848543151538,-3.0120189964202555
-3.0120189964202555,-0.7842408703945943
-0.7842408703945943,-0.8403546452778677
-0.8403546452778677,-2.2199237214790695
-2.2199237214790695,-1.4846770715347937
-1.4846770715347937,0.6434858296315715
0.6434858296315715,0.6503312357989447
0.6503312357989447,1.6973234708555447
1.6973234708555447,1.883495387749847
1.883495387749847,0.29723740951754013
0.29723740951754013,0.341274083981842
0.341274083981842,0.4512992941579128
0.4512992941579128,-0.009126108925070403
-0.009126108925070403,-0.21869851875477675
-0.21869851875477675,0.18496668752377624
0.18496668752377624,-1.2986484768861697
-1.2986484768861697,0.9077585943488177
0.9077585943488177,0.8460935779579443
0.8460935779579443,-1.4480257348777106
-1.4480257348777106,-1.9430596555912052
-1.9430596555912052,-1.5695574033880288
-1.5695574033880288,0.7878259424857158
0.7878259424857158,-0.021842523533398907
-0.021842523533398907,-1.9700537162928062
-1.9700537162928062,-0.7766739775261263
-0.7766739775261263,0.39749963904371655
0.39749963904371655,-0.3148787908500029
-0.3148787908500029,-1.97974117052438
-1.97974117052438,1.8032870527374192
1.8032870527374192,-0.26048638223582415
-0.26048638223582415,0.24193987203095357
0.24193987203095357,1.3859179308923373
1.3859179308923373,-1.1779449787672602
-1.1779449787672602,0.9723436704036408
0.9723436704036408,-1.0659990551235705
-1.0659990551235705,0.38530678718544004
0.38530678718544004,1.5681798590569906
1.5681798590569906,0.028809437719910153
0.028809437719910153,1.747580593727307
1.747580593727307,1.0455050876314271
1.0455050876314271,-1.3996104563691643
-1.3996104563691643,0.10866324610908407
0.10866324610908407,1.9453042347264407
1.9453042347264407,-1.360607738398395
-1.360607738398395,0.22533336511262061
0.22533336511262061,-0.5228959771880147
-0.5228959771880147,-4.323729802228128
-4.323729802228128,-1.383526501171357
-1.383526501171357,1.9559510239373474
1.9559510239373474,2.120645260908507
2.120645260908507,-1.0832934265526943
-1.0832934265526943,1.3773211092696904
1.3773211092696904,-0.005820909140288176
-0.005820909140288176,-0.40198560237225145
-0.40198560237225145,-2.465239084765428
-2.465239084765428,-1.533699546353347
-1.533699546353347,-0.8020443572005298
-0.8020443572005298,-0.05894074741856356
-0.05894074741856356,1.7664213604672248
1.7664213604672248,0.16679778176271526
0.16679778176271526,-0.3041353337706821
-0.3041353337706821,-0.32349458198575753
-0.32349458198575753,-0.874676927596571
-0.874676927596571,-1.0439116315145092
-1.0439116315145092,-0.1605201948484075
-0.1605201948484075,1.2164170061587867
1.2164170061587867,0.44544190542342443
0.44544190542342443,-1.4748353236946912
-1.4748353236946912,1.037189457991736
1.037189457991736,-0.8891509082402732
-0.8891509082402732,-1.165428387523558
-1.165428387523558,-0.6617096226122281
-0.6617096226122281,1.2937362228278926
1.2937362228278926,-0.16023092568563924
-0.16023092568563924,-0.3741578977571033
-0.3741578977571033,-0.41906298402742864
-0.41906298402742864,-0.8535490075243327
-0.8535490075243327,-0.05322143678530064
-0.05322143678530064,-0.22693896860401105
-0.22693896860401105,1.1488201497201835
1.1488201497201835,-0.5080559320108343
-0.5080559320108343,-0.08646718598444476
-0.08646718598444476,-1.6691945453770236
-1.6691945453770236,-1.405126654927389
-1.405126654927389,-0.19593431975831876
-0.19593431975831876,-0.18979969860430285
-0.18979969860430285,0.30606643472329087
0.30606643472329087,0.988331685337877
0.988331685337877,-0.2899753593517023
-0.2899753593517023,0.42727546496281404
0.42727546496281404,0.5576098359718574
0.5576098359718574,-0.7725526611551705
-0.7725526611551705,0.9336573603619998
0.9336573603619998,1.645033031836436
1.645033031836436,-0.19188989173470675
-0.19188989173470675,0.2872161710878171
0.2872161710878171,-1.2089109355894245
-1.2089109355894245,-0.30464886492713034
-0.30464886492713034,3.552337515515653
3.552337515515653,-2.9407894435603104
-2.9407894435603104,0.23073348189099083
0.23073348189099083,0.5866469659190652
0.5866469659190652,-0.30539392907843715
-0.30539392907843715,-1.1097918681958558
-1.1097918681958558,-0.874280883958368
-0.874280883958368,-2.476076711600345
-2.476076711600345,-1.5433022297485433
-1.5433022297485433,0.18004648280885183
0.18004648280885183,-1.473478240456757
-1.473478240456757,-1.3754256626906984
-1.3754256626906984,-0.48711802392192854
-0.48711802392192854,0.7209891223149862
0.7209891223149862,-0.9977222329522002
-0.9977222329522002,-1.2735278906717067
-1.2735278906717067,0.24943912870901794
0.24943912870901794,-1.2392146559663721
-1.2392146559663721,-0.2388305047994
-0.2388305047994,-0.5628014046622836
-0.5628014046622836,-1.3408203244136363
-1.3408203244136363,0.5223111897501395
0.5223111897501395,-1.3198630241757952
-1.3198630241757952,-2.1646733514368206
-2.1646733514368206,-2.5302667358726176
-2.5302667358726176,2.939431741302818
2.939431741302818,1.2022631467676494
1.2022631467676494,2.181430218916426
2.181430218916426,0.022224116024145476
0.022224116024145476,0.19568349704857882
0.19568349704857882,-1.6967455325537808
-1.6967455325537808,0.5065819432989014
0.5065819432989014,-1.4920436540923805
-1.4920436540923805,0.1053418930700415
0.1053418930700415,0.5807038170073047
0.5807038170073047,1.370923763936891
1.370923763936891,0.2693317498928193
0.2693317498928193,-1.900854930512108
-1.900854930512108,1.6478286265445696
1.6478286265445696,-0.15543977047214425
-0.15543977047214425,-0.8757515271380218
-0.8757515271380218,-0.5804444941899024
-0.5804444941899024,-0.6386172796108749
-0.6386172796108749,-0.5395503713375166
-0.5395503713375166,0.6867734983208938
0.6867734983208938,-1.8350479396791597
-1.8350479396791597,-0.6209375116358937
-0.6209375116358937,1.8089079870522315
1.8089079870522315,1.6712640151300853
1.6712640151300853,-0.6333411672236242
-0.6333411672236242,-0.07244696163335153
-0.07244696163335153,-1.5001572922474222
-1.5001572922474222,0.22552113040585128
0.22552113040585128,-1.8899593571947388
-1.8899593571947388,0.6157029323441543
0.6157029323441543,-1.6695827987479959
-1.6695827987479959,3.506396637592158
3.506396637592158,-2.167077590830007
-2.167077590830007,3.1006657020297785
3.1006657020297785,0.8054614840074074
0.8054614840074074,0.6078431817631963
0.6078431817631963,-0.42286896478788155
-0.42286896478788155,1.0258173312470735
1.0258173312470735,-1.0026797666173026
-1.0026797666173026,2.113354179081144
2.113354179081144,1.0481741582713735
1.0481741582713735,1.7094647150834066
1.7094647150834066,0.41375013786241804
0.41375013786241804,1.0058182887681373
1.0058182887681373,0.667383683907937
0.667383683907937,0.8261068343124288
0.8261068343124288,-0.5991799788425564
-0.5991799788425564,-0.7120547209541844
-0.7120547209541844,-0.7620060172507827
-0.7620060172507827,1.9376296571252367
1.9376296571252367,0.1408855481213423
0.1408855481213423,1.256031387636484
1.256031387636484,3.263786254948571
3.263786254948571,0.6597680503928883
0.6597680503928883,-2.2884341447147767
-2.2884341447147767,0.5505448134993635
0.5505448134993635,-1.4036786916618296
-1.4036786916618296,-1.1180923379047114
-1.1180923379047114,0.511502038219526
0.511502038219526,0.23095189181611106
0.23095189181611106,-0.5863566343364145
-0.5863566343364145,-2.0323909073809885
-2.0323909073809885,-0.725788576230497
-0.725788576230497,-0.9267108229373143
-0.9267108229373143,-1.2226954690724419
-1.2226954690724419,-0.9348306680660218
-0.9348306680660218,-1.5346067857937609
-1.5346067857937609,-0.2241286234966127
-0.2241286234966127,-1.362747409716652
-1.362747409716652,0.45664402917755614
0.45664402917755614,-1.2648587636531357
-1.2648587636531357,-2.0663018887570055
-2.0663018887570055,0.9407978091426785
0.9407978091426785,1.4054357847971317
1.4054357847971317,-0.7693437777688489
-0.7693437777688489,-0.6782542594255239
-0.6782542594255239,-0.9899787548174228
-0.9899787548174228,0.49999722924817536
0.49999722924817536,0.008430764562776936
0.008430764562776936,0.3500355767194206
0.3500355767194206,-0.7300940472822889
-0.7300940472822889,-0.03903617636321412
-0.03903617636321412,2.2478704665969556
2.2478704665969556,-1.1441058378052584
-1.1441058378052584,-0.9481647930028132
-0.9481647930028132,-1.3621894684242408
-1.3621894684242408,-0.4420896659805603
-0.4420896659805603,-2.4327295400897517
-2.4327295400897517,-0.5522738183924945
-0.5522738183924945,2.604355018424222
2.604355018424222,-1.9161322664911022
-1.9161322664911022,0.9697767115674673
0.9697767115674673,-0.5634458417699878
-0.5634458417699878,0.13836593258057173
0.13836593258057173,-3.179846327681788
-3.179846327681788,-3.3100709544407376
-3.3100709544407376,1.7362878393264518
1.7362878393264518,-0.251670799145946
-0.251670799145946,-1.2241765723554667
-1.2241765723554667,-0.2532461645408866
-0.2532461645408866,0.3592987788113572
0.3592987788113572,-0.7952270414300541
-0.7952270414300541,0.6038170752897694
0.6038170752897694,1.2353580886712536
1.2353580886712536,1.6944332430421984
1.6944332430421984,0.510286221003845
0.510286221003845,0.5846513709840737
0.5846513709840737,-0.6571635130926914
-0.6571635130926914,-1.6062419252739766
-1.6062419252739766,-1.3687310593612663
-1.3687310593612663,-1.2426342413123335
-1.2426342413123335,1.442850467307017
1.442850467307017,0.4735320731143233
0.4735320731143233,2.2552328581727807
2.2552328581727807,2.028660236608362
2.028660236608362,-2.2379387251751632
-2.2379387251751632,0.972514835941234
0.972514835941234,1.6247620766374147
1.6247620766374147,-1.0356931579776627
-1.0356931579776627,-0.34279800431612034
-0.34279800431612034,-1.959080349560028
-1.959080349560028,-0.7036955755485751
-0.7036955755485751,-2.4303985179223275
-2.4303985179223275,2.883176562693845
2.883176562693845,0.3529027206479156
0.3529027206479156,0.6570804878803433
0.6570804878803433,1.7432055721228552
1.7432055721228552,0.8067677840357477
0.8067677840357477,-1.636598809006449
-1.636598809006449,-0.04925716428424401
-0.04925716428424401,-0.08963575129077066
-0.08963575129077066,0.6974712302819903
0.6974712302819903,0.7292221143492499
0.7292221143492499,-0.8903556282575207
-0.8903556282575207,2.18148775783403
2.18148775783403,-0.6928590378887384
-0.6928590378887384,0.4183550593189946
0.4183550593189946,1.4549462075943533
1.4549462075943533,1.4828217182432533
1.4828217182432533,-0.8426089105162234
-0.8426089105162234,1.1669925353079171
1.1669925353079171,-0.035854879797259986
-0.035854879797259986,-1.268421031098257
-1.268421031098257,0.022764136470402263
0.022764136470402263,1.0927104464570407
1.0927104464570407,-1.0344274492906238
-1.0344274492906238,0.9904016115100415
0.9904016115100415,-0.1000227669274695
-0.1000227669274695,-0.08477848679848692
-0.08477848679848692,-1.2634380578395912
-1.2634380578395912,-0.024071052968730154
-0.024071052968730154,-0.3610421483741269
-0.3610421483741269,-0.36111438998130246
-0.36111438998130246,0.19288013459267425
0.19288013459267425,2.3593151532407903
2.3593151532407903,-0.5483592821587673
-0.5483592821587673,-0.29190006092583126
-0.29190006092583126,1.1473806888992626
1.1473806888992626,0.7198862398867636
0.7198862398867636,-0.7202341350451785
-0.7202341350451785,-1.4162338868435267
-1.4162338868435267,-0.37256807911152723
-0.37256807911152723,0.22490689243153167
0.22490689243153167,-1.0046133690994328
-1.0046133690994328,1.4031199033221415
1.4031199033221415,-1.3778453315010422
-1.3778453315010422,0.75243791669907
0.75243791669907,-0.06761224493518025
-0.06761224493518025,0.05673035350383998
0.05673035350383998,-0.08042545930902098
-0.08042545930902098,-1.3755351113807504
-1.3755351113807504,1.4168598885412835
1.4168598885412835,-0.677657253134579
-0.677657253134579,-0.1599427681691621
-0.1599427681691621,0.44098076172255607
0.44098076172255607,-0.568747515429897
-0.568747515429897,0.5647112775575964
0.5647112775575964,-0.7729640730709259
-0.7729640730709259,-1.4866967061197367
-1.4866967061197367,-1.1120948590106332
-1.1120948590106332,-1.9064623859481784
-1.9064623859481784,0.2709390105651143
0.2709390105651143,-0.3249259338406551
-0.3249259338406551,1.8761672300972227
1.8761672300972227,-0.6705538070610366
-0.6705538070610366,0.5890192187997354
0.5890192187997354,-0.8481963449315786
-0.8481963449315786,0.9049087383331066
0.9049087383331066,1.8818225296916158
1.8818225296916158,-0.543420130821247
-0.543420130821247,-1.411693877783313
-1.411693877783313,0.6695305355238208
0.6695305355238208,-0.672490742361908
-0.672490742361908,-1.0485192539366868
-1.0485192539366868,0.522427780434245
0.522427780434245,-1.3335076225091225
-1.3335076225091225,0.49241752559685437
0.49241752559685437,-0.643668970608485
-0.643668970608485,2.0108912548659075
2.0108912548659075,1.6269679451984638
1.6269679451984638,0.16902782059610946
0.16902782059610946,-2.537209271355242
-2.537209271355242,0.8645491205659505
0.8645491205659505,-1.0222044264614962
-1.0222044264614962,-0.8243638929191739
-0.8243638929191739,-1.9295247433600178
-1.9295247433600178,0.844243575457691
0.844243575457691,-1.7910751980258777
-1.7910751980258777,0.10837376455238194
0.10837376455238194,-0.7798524292470177
-0.7798524292470177,-1.7654877195624479
-1.7654877195624479,-1.0891677464163363
-1.0891677464163363,0.20970804053228634
0.20970804053228634,0.08416457989796546
0.08416457989796546,-1.132738389426022
-1.132738389426022,1.725319377347004
1.725319377347004,1.2759452588077569
1.2759452588077569,-0.6125506127064353
-0.6125506127064353,-0.33322748944013286
-0.33322748944013286,-3.481753199890859
-3.481753199890859,0.41232252165305244
0.41232252165305244,0.10732064736218375
0.10732064736218375,-1.489729388720064
-1.489729388720064,0.7310041807749545
0.7310041807749545,-4.599005049209189
-4.599005049209189,1.6210294395661644
1.6210294395661644,-0.7911824346777485
-0.7911824346777485,-0.804378677919079
-0.804378677919079,2.3433456954857554
2.3433456954857554,0.8932850480952939
0.8932850480952939,0.023595673893374452
0.023595673893374452,-0.8060861983596542
-0.8060861983596542,-0.8594346799651066
-0.8594346799651066,-1.7654650629628756
-1.7654650629628756,0.35777517747895315
0.35777517747895315,0.5677141465085528
0.5677141465085528,-1.2707589805348318
-1.2707589805348318,-1.6868021195710925
-1.6868021195710925,-0.9878079997704657
-0.9878079997704657,-1.7872035685512295
-1.7872035685512295,-0.32421595442277773
-0.32421595442277773,1.8513145159882642
1.8513145159882642,-0.18486755677225405
-0.18486755677225405,0.1087859531148801
0.1087859531148801,0.642146143452394
0.642146143452394,-0.23889051862088442
-0.23889051862088442,0.6781033048805266
0.6781033048805266,1.2178587098667109
1.2178587098667109,-2.048034233574003
-2.048034233574003,0.4911508254868131
0.4911508254868131,-1.033544392821715
-1.033544392821715,-1.4815371922291247
-1.4815371922291247,-0.2875537362833776
-0.2875537362833776,-1.8009061970694256
-1.8009061970694256,1.011447584282617
1.011447584282617,0.603832175018008
0.603832175018008,-2.4949374087120586
-2.4949374087120586,0.10583599146131233
0.10583599146131233,-1.4700323154284822
-1.4700323154284822,1.5093516762020651
1.5093516762020651,0.44191880653327187
0.44191880653327187,0.21641311432854873
0.21641311432854873,-1.1474856373989784
-1.1474856373989784,0.7455911793819952
0.7455911793819952,-1.206195125021719
-1.206195125021719,-1.0851433891119173
-1.0851433891119173,1.3057352828218192
1.3057352828218192,1.3723614861553202
1.3723614861553202,-0.12137548061720714
-0.12137548061720714,-1.121117994510913
-1.121117994510913,1.5875180924915548
1.5875180924915548,1.688254477968622
1.688254477968622,0.47300658256386197
0.47300658256386197,-0.3209846236633959
-0.3209846236633959,0.410500597051142
0.410500597051142,0.36711009798864247
0.36711009798864247,3.3306347706738575
3.3306347706738575,2.2037593691678254
2.2037593691678254,-1.1290583553720488
-1.1290583553720488,-2.097591032792069
-2.097591032792069,-3.6299025431476943
-3.6299025431476943,-1.0777676661224393
-1.0777676661224393,1.2410923552323463
1.2410923552323463,0.1080895709406839
0.1080895709406839,3.6271633756373696
3.6271633756373696,-1.4999108977475728
-1.4999108977475728,0.6165065467181141
0.6165065467181141,1.1395489627779856
1.1395489627779856,2.0113354042437837
2.0113354042437837,-0.9076005437916982
-0.9076005437916982,-1.1378075088166346
-1.1378075088166346,0.26911147087338555
0.26911147087338555,-0.4252934619983696
-0.4252934619983696,-1.3748058111697912
-1.3748058111697912,-0.19084468551942596
-0.19084468551942596,-1.7900411290122367
-1.7900411290122367,-1.3789061014856292
-1.3789061014856292,1.0099072427752291
1.0099072427752291,-1.2769429751742196
-1.2769429751742196,-1.3491312799473496
-1.3491312799473496,-0.07293124838143471
-0.07293124838143471,2.7405672875579157
2.7405672875579157,-1.6073660436337358
-1.6073660436337358,0.8798008863529978
0.8798008863529978,3.701841535044247
3.701841535044247,-0.07793167818392416
-0.07793167818392416,2.810914344355151
2.810914344355151,0.17074449341628822
0.17074449341628822,0.8303075503598448
0.8303075503598448,1.7450069157847643
1.7450069157847643,-1.6391195393805882
-1.6391195393805882,1.1707595777960556
1.1707595777960556,-2.2403142911098333
-2.2403142911098333,0.9185546686396066
0.9185546686396066,-0.6151906706926948
-0.6151906706926948,-4.861264148407845
-4.861264148407845,0.07685108729563991
0.07685108729563991,0.3140885067303029
0.3140885067303029,-1.2960555486473886
-1.2960555486473886,1.5718344823754784
1.5718344823754784,-1.1060493548754218
-1.1060493548754218,-1.5217133618764216
-1.5217133618764216,-0.29559877170512805
-0.29559877170512805,-0.5877544836818825
-0.5877544836818825,3.7450052280759776
3.7450052280759776,0.7950388952530328
0.7950388952530328,-1.2312789597279006
-1.2312789597279006,1.7993732142659005
1.7993732142659005,-0.9814827431206385
-0.9814827431206385,1.6713365573370693
1.6713365573370693,-0.5181049491949102
-0.5181049491949102,1.177649026732202
1.177649026732202,1.5598493194636605
1.5598493194636605,0.451621262450603
0.451621262450603,-2.3259838814287126
-2.3259838814287126,1.0959995666134852
1.0959995666134852,1.7787524070546856
1.7787524070546856,1.2569394324090923
1.2569394324090923,2.307182125841387
2.307182125841387,-0.09103966983633137
-0.09103966983633137,-3.9931257069506243
-3.9931257069506243,-0.8957112242260938
-0.8957112242260938,-0.23765586712175243
-0.23765586712175243,2.050580004117093
2.050580004117093,3.827092242474814
3.827092242474814,1.0253689769773424
1.0253689769773424,-0.2549062183316305
-0.2549062183316305,-0.614507170516581
-0.614507170516581,0.5653502310712826
0.5653502310712826,-0.1972335731047219
-0.1972335731047219,-0.6743734788409185
-0.6743734788409185,-0.9789469865505211
-0.9789469865505211,-2.469921716683176
-2.469921716683176,1.6714927593940647
1.6714927593940647,-2.1713216902617507
-2.1713216902617507,1.1574954191138478
1.1574954191138478,-1.460780748264994
-1.460780748264994,1.6512248118720436
1.6512248118720436,2.3562944712123484
2.3562944712123484,-0.32230917385725316
-0.32230917385725316,0.25368426354550966
0.25368426354550966,-0.6205617288672128
-0.6205617288672128,-0.4033163960451452
-0.4033163960451452,-0.5463856102391199
-0.5463856102391199,1.6125950567455254
1.6125950567455254,-3.51000521437299
-3.51000521437299,0.5512868154811141
0.5512868154811141,1.5165739909604483
1.5165739909604483,-1.3299237099894823
-1.3299237099894823,-1.0070160992332633
-1.0070160992332633,-2.136274555524259
-2.136274555524259,0.5396877210754171
0.5396877210754171,3.3601358571443343
3.3601358571443343,-1.5783205162436746
-1.5783205162436746,-2.9570509837872225
-2.9570509837872225,1.3093372804780519
1.3093372804780519,-1.453366904954418
-1.453366904954418,-0.48391457140950583
-0.48391457140950583,-0.14009201595925597
-0.14009201595925597,-0.038185504408711414
-0.038185504408711414,0.7216164738871441
0.7216164738871441,1.6885865191649592
1.6885865191649592,2.4847945028162206
2.4847945028162206,0.29566862358854457
0.29566862358854457,-1.3160389290652694
-1.3160389290652694,1.4559709602015363
1.4559709602015363,-0.6059895476650006
-0.6059895476650006,0.9047278705817194
0.9047278705817194,-0.12905748477328222
-0.12905748477328222,4.664676130439595
4.664676130439595,1.1479031776534319
1.1479031776534319,-1.120345504597083
-1.120345504597083,0.8247220140202766
0.8247220140202766,-1.838675070778973
-1.838675070778973,1.209252345230914
1.209252345230914,2.01565618435157
2.01565618435157,-1.32515310216102
-1.32515310216102,-1.6637812294649688
-1.6637812294649688,-0.37203664731380676
-0.37203664731380676,-0.6506275452295471
-0.6506275452295471,-0.3852740886984895
-0.3852740886984895,-1.1618816632642406
-1.1618816632642406,0.5868385732095075
0.5868385732095075,0.28145914801913924
0.28145914801913924,-0.020282055364452847
-0.020282055364452847,2.3951355965215058
2.3951355965215058,0.4162625971671668
0.4162625971671668,1.4276826332284158
1.4276826332284158,0.2837938661519435
0.2837938661519435,-0.1522067343861988
-0.1522067343861988,0.19270636838934682
0.19270636838934682,-1.0429627671675465
-1.0429627671675465,0.28330275045990305
0.28330275045990305,-1.0189097284802708
-1.0189097284802708,-0.1440881211426978
-0.1440881211426978,0.6760283362242157
0.6760283362242157,-0.27665909996261306
-0.27665909996261306,-1.2031058716846308
-1.2031058716846308,-0.679781333858521
-0.679781333858521,3.6732951829010503
3.6732951829010503,-0.17608220288502252
-0.17608220288502252,0.9382544076514545
0.9382544076514545,-0.1936043618650411
-0.1936043618650411,0.8824742627883648
0.8824742627883648,-2.6404525921591913
-2.6404525921591913,-0.5852096860757502
-0.5852096860757502,1.0007269282577085
1.0007269282577085,2.021989632220766
2.021989632220766,-0.5076111109389433
-0.5076111109389433,-0.8817846500874944
-0.8817846500874944,-2.201400982783341
-2.201400982783341,-0.359142908679687
-0.359142908679687,1.1304168141870319
1.1304168141870319,0.611243898206559
0.611243898206559,0.27451640533513905
0.27451640533513905,-2.601236772566069
-2.601236772566069,-2.9999168557363856
-2.9999168557363856,-1.3254925519452123
-1.3254925519452123,-1.642117618452733
-1.642117618452733,-0.2238332436982029
-0.2238332436982029,1.421567877428452
1.421567877428452,-0.11356964179257548
-0.11356964179257548,-1.7512234089127772
-1.7512234089127772,1.1358738525769092
1.1358738525769092,-1.1837824164573638
-1.1837824164573638,0.6000236639249179
0.6000236639249179,-0.10962632293078509
-0.10962632293078509,-0.46780339104944135
-0.46780339104944135,-1.252804213326437
-1.252804213326437,1.0496840413047757
1.0496840413047757,-1.552606893976392
-1.552606893976392,-0.4148749366853348
-0.4148749366853348,-0.20653729543197918
-0.20653729543197918,-1.7152172766979916
-1.7152172766979916,-0.9256243991249877
-0.9256243991249877,0.25285676094015513
0.25285676094015513,0.5497352639161378
0.5497352639161378,-2.084883328892491
-2.084883328892491,-2.3330773087359455
-2.3330773087359455,0.6181455545303342
0.6181455545303342,0.14423462445613777
0.14423462445613777,-0.7259892734199661
-0.7259892734199661,-0.4096758047303958
-0.4096758047303958,2.654901523019417
2.654901523019417,0.4476503315665892
0.4476503315665892,-0.04446562752031918
-0.04446562752031918,-0.6986606256024056
-0.6986606256024056,1.600911751604571
1.600911751604571,-2.1366479249203274
-2.1366479249203274,0.10835355424673633
0.10835355424673633,-1.236621017128563
-1.236621017128563,1.8193463588018568
1.8193463588018568,-0.0636023056216174
-0.0636023056216174,0.32756749488078285
0.32756749488078285,-0.3498873962157199
-0.3498873962157199,0.3998973128438979
0.3998973128438979,0.34772026759752295
0.34772026759752295,2.277778740974493
2.277778740974493,0.04394623485383285
0.04394623485383285,4.527147488142182
4.527147488142182,-1.389072666771641
-1.389072666771641,0.9697024801797134
0.9697024801797134,-1.4246621217331739
-1.4246621217331739,1.1852858600266898
1.1852858600266898,1.3884620391743883
1.3884620391743883,0.9258731914231726
0.9258731914231726,1.3435302577875021
1.3435302577875021,2.1234401618444
2.1234401618444,0.9431115556571853
0.9431115556571853,0.6189407361388478
0.6189407361388478,-0.6231908929787335
-0.6231908929787335,1.8436714106772905
1.8436714106772905,2.154916988262384
2.154916988262384,0.07011395625516556
0.07011395625516556,-0.5220111278238551
-0.5220111278238551,-1.3366023975008594
-1.3366023975008594,3.780862282473
3.780862282473,0.18087977410769296
0.18087977410769296,-0.04148782400864739
-0.04148782400864739,0.1392510315045377
0.1392510315045377,-1.2416243435739296
-1.2416243435739296,-1.128523901480629
-1.128523901480629,-0.22709190909935198
-0.22709190909935198,0.3426100236688566
0.3426100236688566,1.8065247174792447
1.8065247174792447,-1.5240453757755468
-1.5240453757755468,0.5878897008019215
0.5878897008019215,1.7664760970066722
1.7664760970066722,0.7054466330452944
0.7054466330452944,-0.2924660636394829
-0.2924660636394829,-0.09721542415183311
-0.09721542415183311,-0.6266277039034529
-0.6266277039034529,0.08762171885396229
0.08762171885396229,-0.4364515449996858
-0.4364515449996858,-1.3720690409271816
-1.3720690409271816,0.07962562373072414
0.07962562373072414,1.46291024580353
1.46291024580353,1.045776567070124
1.045776567070124,0.09744653629689462
0.09744653629689462,-1.3333532498868679
-1.3333532498868679,0.3095925259453953
0.3095925259453953,-0.42011077391031293
-0.42011077391031293,-1.3523732321276958
-1.3523732321276958,-0.9559758183094332
-0.9559758183094332,-0.9835367794566994
-0.9835367794566994,-0.0643628154558562
-0.0643628154558562,-1.8991849818079842
-1.8991849818079842,0.5169479094838166
0.5169479094838166,3.073358904027097
3.073358904027097,0.6027416467146103
0.6027416467146103,-1.5938194008822506
-1.5938194008822506,0.2736509650267662
0.2736509650267662,0.6810557793277093
0.6810557793277093,-0.3139819199293793
-0.3139819199293793,-0.5379210849214102
-0.5379210849214102,-0.11704469378100317
-0.11704469378100317,0.07675629968888609
0.07675629968888609,1.1234786353599455
1.1234786353599455,-0.6718969219423978
-0.6718969219423978,-0.4814358710635861
-0.4814358710635861,0.1848232251329001
0.1848232251329001,-0.45844684485612913
-0.45844684485612913,-1.8897439429065757
-1.8897439429065757,-1.0505357239028585
-1.0505357239028585,0.9049373479328945
0.9049373479328945,-0.8096142805440518
-0.8096142805440518,0.5498459926108238
0.5498459926108238,0.5752545165296027
0.5752545165296027,0.2480963457811769
0.2480963457811769,-0.8018125312741322
-0.8018125312741322,2.548535175497348
2.548535175497348,-1.0577206292024444
-1.0577206292024444,-0.7127138239075556
-0.7127138239075556,-0.6002636412984607
-0.6002636412984607,-0.4939544017297165
-0.4939544017297165,1.0258909434134655
1.0258909434134655,1.5941242808116822
1.5941242808116822,-0.21369233486745706
-0.21369233486745706,0.9021062582269667
0.9021062582269667,1.3330299920227295
1.3330299920227295,0.3155363905805076
0.3155363905805076,1.885928581173129
1.885928581173129,0.3941729699026117
0.3941729699026117,-0.25190852208483905
-0.25190852208483905,2.065163372409257
2.065163372409257,0.8208640005041254
0.8208640005041254,0.3159718450725943
0.3159718450725943,-0.17662882065795438
-0.17662882065795438,-0.5935321249976125
-0.5935321249976125,0.3607511819870337
0.3607511819870337,2.286211155125333
2.286211155125333,0.6641861015366838
0.6641861015366838,1.3048297612825366
1.3048297612825366,-0.8555586133823957
