log_returns,log_returns_norm,out_log_returns,out_log_returns_norm,bin_output
-0.06217067261244709,-2.3015585971965695,-0.02890951201893009,-1.0721550595882376,0
-0.02890951201893009,-1.0721550595882376,-0.006313664206394723,-0.23696426226515796,0
-0.006313664206394723,-0.23696426226515796,0.03752782060856075,1.3835106569417728,1
0.03752782060856075,1.3835106569417728,0.0066537109447078946,0.24233762016426172,1
0.0066537109447078946,0.24233762016426172,-0.03431163968258636,-1.2718292363698303,0
-0.03431163968258636,-1.2718292363698303,0.006486965289087793,0.23617434458270758,1
0.006486965289087793,0.23617434458270758,0.03102101026746529,1.1430050489249428,1
0.03102101026746529,1.1430050489249428,-0.01388671087942099,-0.516880242470196,0
-0.01388671087942099,-0.516880242470196,0.042757008717721756,1.5767926184099188,1
0.042757008717721756,1.5767926184099188,-0.010910771017693678,-0.40688314891025823,0
-0.010910771017693678,-0.40688314891025823,0.013454353908274264,0.4937039095008194,1
0.013454353908274264,0.4937039095008194,-0.0019900537651995737,-0.07715438561636527,0
-0.0019900537651995737,-0.07715438561636527,0.004747459113208658,0.17187848093403565,1
0.004747459113208658,0.17187848093403565,0.01681997814849272,0.6181045700114877,1
0.01681997814849272,0.6181045700114877,0.007230357537086505,0.2636517098703868,1
0.007230357537086505,0.2636517098703868,-0.05412697753097369,-2.0042464465636294,0
-0.05412697753097369,-2.0042464465636294,0.00915214769971249,0.334685179007173,1
0.00915214769971249,0.334685179007173,0.0013487145524411707,0.04625362263462171,1
0.0013487145524411707,0.04625362263462171,0.0384514232054729,1.417648981634188,1
0.0384514232054729,1.417648981634188,0.04014732914340653,1.4803332873632238,1
0.04014732914340653,1.4803332873632238,-0.011697210312384148,-0.43595162498728113,0
-0.011697210312384148,-0.43595162498728113,0.010450507634674332,0.38267533535313436,1
0.010450507634674332,0.38267533535313436,-0.0041671225931546214,-0.15762349947003043,0
-0.0041671225931546214,-0.15762349947003043,0.001668885695548398,0.05808783193316464,1
0.001668885695548398,0.05808783193316464,-0.007217172850022866,-0.27035987152578755,0
-0.007217172850022866,-0.27035987152578755,-0.021862328850613816,-0.8116761177021689,0
-0.021862328850613816,-0.8116761177021689,0.017021752505150912,0.6255625812007477,1
0.017021752505150912,0.6255625812007477,0.02211643560337754,0.8138729501772892,1
0.02211643560337754,0.8138729501772892,-0.00444652316299665,-0.1679507412993647,0
-0.00444652316299665,-0.1679507412993647,-0.012304642558786154,-0.4584036182207812,0
-0.012304642558786154,-0.4584036182207812,-0.015969822787198478,-0.5938765078727585,0
-0.015969822787198478,-0.5938765078727585,-0.029426627247564924,-1.0912687429381422,0
-0.029426627247564924,-1.0912687429381422,0.009289159895972251,0.3397494424234673,1
0.009289159895972251,0.3397494424234673,-0.00348697850570054,-0.13248392128698835,0
-0.00348697850570054,-0.13248392128698835,0.015381565969243394,0.5649377835809289,1
0.015381565969243394,0.5649377835809289,-0.031668966564102854,-1.174150393460202,0
-0.031668966564102854,-1.174150393460202,-0.004559318837052668,-0.17211991033125992,0
-0.004559318837052668,-0.17211991033125992,-0.007383450777198635,-0.27650585886502416,0
-0.007383450777198635,-0.27650585886502416,0.014602111825989082,0.5361274936204788,1
0.014602111825989082,0.5361274936204788,0.001326939449181662,0.045448768308995906,1
0.001326939449181662,0.045448768308995906,-0.00999565802250865,-0.37305861803050555,0
-0.00999565802250865,-0.37305861803050555,-0.011450469357264672,-0.4268315522753305,0
-0.011450469357264672,-0.4268315522753305,-0.009643258910311397,-0.3600331941591034,0
-0.009643258910311397,-0.3600331941591034,-0.01759574748041981,-0.653974157325215,0
-0.01759574748041981,-0.653974157325215,0.004168126897101471,0.15046512483871427,1
0.004168126897101471,0.15046512483871427,-0.009752822653168316,-0.3640829041108409,0
-0.009752822653168316,-0.3640829041108409,-0.00374050345740097,-0.14185474500241943,0
-0.00374050345740097,-0.14185474500241943,0.02897083127868665,1.0672260545495629,1
0.02897083127868665,1.0672260545495629,-0.012593165225586588,-0.46906803223746407,0
-0.012593165225586588,-0.46906803223746407,0.04350962908178063,1.6046110745773923,1
0.04350962908178063,1.6046110745773923,-0.012542534895091053,-0.4671966270816974,0
-0.012542534895091053,-0.4671966270816974,0.012763077993248866,0.46815287519441856,1
0.012763077993248866,0.46815287519441856,-0.018700459272602832,-0.6948066647035704,0
-0.018700459272602832,-0.6948066647035704,-0.0017994119273162207,-0.07010785609882249,0
-0.0017994119273162207,-0.07010785609882249,0.012528159109242078,0.4594697714813978,1
0.012528159109242078,0.4594697714813978,0.01544263567436515,0.5671950503202026,1
0.01544263567436515,0.5671950503202026,-0.008795165092549542,-0.3286858352222836,0
-0.008795165092549542,-0.3286858352222836,0.017296565387713722,0.6357202523094616,1
0.017296565387713722,0.6357202523094616,-0.004895804195041144,-0.18455712785712908,0
-0.004895804195041144,-0.18455712785712908,-0.0051391640230315765,-0.19355222688868567,0
-0.0051391640230315765,-0.19355222688868567,0.016202147078194964,0.5952682140360905,1
0.016202147078194964,0.5952682140360905,0.023031230612074714,0.8476857275972678,1
0.023031230612074714,0.8476857275972678,-0.006344592557509947,-0.23810744018183175,0
-0.006344592557509947,-0.23810744018183175,-0.002442736390903678,-0.09388650234120766,0
-0.002442736390903678,-0.09388650234120766,0.01760254323479706,0.6470298470716888,1
0.01760254323479706,0.6470298470716888,0.00915240163506831,0.3346945650003012,1
0.00915240163506831,0.3346945650003012,-0.01986675449868819,-0.7379154273341961,0
-0.01986675449868819,-0.7379154273341961,0.018519981371005696,0.6809403201299119,1
0.018519981371005696,0.6809403201299119,0.015430817588474952,0.5667582286236079,1
0.015430817588474952,0.5667582286236079,0.000408255932535433,0.011492263329807764,1
0.000408255932535433,0.011492263329807764,-0.007888138323308992,-0.29516018852470166,0
-0.007888138323308992,-0.29516018852470166,0.0052315296384895325,0.18977076146823404,1
0.0052315296384895325,0.18977076146823404,-0.011835691708508247,-0.4410701931686059,0
-0.011835691708508247,-0.4410701931686059,0.011426349535486435,0.4187445362949282,1
0.011426349535486435,0.4187445362949282,0.005817230401295148,0.21141951265202377,1
0.005817230401295148,0.21141951265202377,-0.015898539286488402,-0.59124171743303,0
-0.015898539286488402,-0.59124171743303,0.006595236020752093,0.24017626207904047,1
0.006595236020752093,0.24017626207904047,0.011234910083295293,0.4116685252489557,1
0.011234910083295293,0.4116685252489557,0.012916413668399969,0.47382048925563897,1
0.012916413668399969,0.47382048925563897,-0.007952137492823235,-0.29752573452492576,0
-0.007952137492823235,-0.29752573452492576,-0.0005053871499925711,-0.022277936438574383,0
-0.0005053871499925711,-0.022277936438574383,0.004942244781769656,0.17907817528417722,1
0.004942244781769656,0.17907817528417722,-0.0500284637898273,-1.8527566247296963,0
-0.0500284637898273,-1.8527566247296963,0.005695626700924258,0.2069247801545843,1
0.005695626700924258,0.2069247801545843,-0.016757225455394136,-0.6229805922921898,0
-0.016757225455394136,-0.6229805922921898,0.0,-0.0035977479251355846,0
0.0,-0.0035977479251355846,-0.020420993605024695,-0.7584012884963527,0
-0.020420993605024695,-0.7584012884963527,0.019458002399822302,0.7156115808616531,1
0.019458002399822302,0.7156115808616531,-0.019567190067421088,-0.7268428861188669,0
-0.019567190067421088,-0.7268428861188669,-0.009543154841323022,-0.3563331339583392,0
-0.009543154841323022,-0.3563331339583392,-0.00286978265013947,-0.10967104420500595,0
-0.00286978265013947,-0.10967104420500595,0.014594013339437887,0.5358281562600966,1
0.014594013339437887,0.5358281562600966,-0.016917912803617003,-0.6289199398924837,0
-0.016917912803617003,-0.6289199398924837,0.002213335862523323,0.07821187298845134,1
0.002213335862523323,0.07821187298845134,0.0113218994132111,0.4148838366820004,1
0.0113218994132111,0.4148838366820004,-0.013535235275734268,-0.5038889534458527,0
-0.013535235275734268,-0.5038889534458527,-0.012374056641367153,-0.4609693109735936,0
-0.012374056641367153,-0.4609693109735936,-0.001683991692869308,-0.06584167770911606,0
-0.001683991692869308,-0.06584167770911606,0.0016839916928693666,0.058646181858847055,1
0.0016839916928693666,0.058646181858847055,-0.005173190509235629,-0.19480991849550822,0
-0.005173190509235629,-0.19480991849550822,0.0007889512161100615,0.025563574132735054,1
0.0007889512161100615,0.025563574132735054,0.011314684241886091,0.4146171485390393,1
0.011314684241886091,0.4146171485390393,-0.008502059403036876,-0.3178520228973392,0
-0.008502059403036876,-0.3178520228973392,-0.018482354880059976,-0.686745060508906,0
-0.018482354880059976,-0.686745060508906,0.025981390076172967,0.9567299225968261,1
0.025981390076172967,0.9567299225968261,-0.006376213692800254,-0.23927622488132516,0
-0.006376213692800254,-0.23927622488132516,-0.000224514847222817,-0.011896296216776523,0
-0.000224514847222817,-0.011896296216776523,0.014707867628030268,0.5400364539463366,1
0.014707867628030268,0.5400364539463366,0.002651032778647921,0.09439008587945674,1
0.002651032778647921,0.09439008587945674,-0.01243220302200725,-0.4631185253961351,0
-0.01243220302200725,-0.4631185253961351,-0.003468507629430187,-0.13180119824833636,0
-0.003468507629430187,-0.13180119824833636,0.00959294133630012,0.3509778533007362,1
0.00959294133630012,0.3509778533007362,-0.011837158840536878,-0.4411244215020119,0
-0.011837158840536878,-0.4411244215020119,-0.002361797097632199,-0.09089481318473036,0
-0.002361797097632199,-0.09089481318473036,-0.006098967778342487,-0.22902862371709304,0
-0.006098967778342487,-0.22902862371709304,-0.002154747798886639,-0.0832418288692423,0
-0.002154747798886639,-0.0832418288692423,0.008028528152423827,0.2931538006152896,1
0.008028528152423827,0.2931538006152896,-0.005081076641722893,-0.1914051932074491,0
-0.005081076641722893,-0.1914051932074491,-0.00784133593765044,-0.29343027238616654,0
-0.00784133593765044,-0.29343027238616654,0.004666743827241671,0.16889507156598663,1
0.004666743827241671,0.16889507156598663,-0.020768316691788392,-0.7712390916259153,0
-0.020768316691788392,-0.7712390916259153,0.014960037677704893,0.5493571975889766,1
0.014960037677704893,0.5493571975889766,-0.020540837725629573,-0.7628309831673773,0
-0.020540837725629573,-0.7628309831673773,-0.0011665712609395774,-0.04671671339355249,0
-0.0011665712609395774,-0.04671671339355249,-0.0067932077792097695,-0.25468921696716157,0
-0.0067932077792097695,-0.25468921696716157,0.01897507494431466,0.6977615506277409,1
0.01897507494431466,0.6977615506277409,-0.026051392886782678,-0.9665128718453072,0
-0.026051392886782678,-0.9665128718453072,0.009541331393467975,0.34907023958066746,1
0.009541331393467975,0.34907023958066746,-0.008949684306234438,-0.33439719539561735,0
-0.008949684306234438,-0.33439719539561735,-0.003911137798214923,-0.14816175469452944,0
-0.003911137798214923,-0.14816175469452944,0.012039855751020232,0.4414210364008494,1
0.012039855751020232,0.4414210364008494,-0.023505395060412677,-0.8724073542196689,0
-0.023505395060412677,-0.8724073542196689,-0.010262673427179443,-0.3829280777018009,0
-0.010262673427179443,-0.3829280777018009,-0.023328271008856007,-0.8658604709572209,0
-0.023328271008856007,-0.8658604709572209,-0.032446192653023696,-1.2028783297736152,0
-0.032446192653023696,-1.2028783297736152,-0.007728989472098204,-0.2892777070600296,0
-0.007728989472098204,-0.2892777070600296,-0.016165200239620744,-0.6010980758183958,0
-0.016165200239620744,-0.6010980758183958,0.003018221081621647,0.10796214982999389,1
0.003018221081621647,0.10796214982999389,-0.01531579987195312,-0.5697024240064162,0
-0.01531579987195312,-0.5697024240064162,-0.026560390299206895,-0.9853265033693314,0
-0.026560390299206895,-0.9853265033693314,0.048796617159079875,1.8000294463221131,1
0.048796617159079875,1.8000294463221131,0.011514447815593057,0.42200083689561746,1
0.011514447815593057,0.42200083689561746,0.010238162861783029,0.3748266190026866,1
0.010238162861783029,0.3748266190026866,-0.017338114216400132,-0.6444514816115747,0
-0.017338114216400132,-0.6444514816115747,-0.009763795279363222,-0.36448847581129146,0
-0.009763795279363222,-0.36448847581129146,0.00391690567062824,0.14117945172817667,1
0.00391690567062824,0.14117945172817667,-0.008506254921782226,-0.31800709823132023,0
-0.008506254921782226,-0.31800709823132023,0.020681025851921837,0.7608171398908287,1
0.020681025851921837,0.7608171398908287,-0.05178121970144919,-1.9175422269113551,0
-0.05178121970144919,-1.9175422269113551,0.033463023952084545,1.2332670905731238,1
0.033463023952084545,1.2332670905731238,0.013414362910445746,0.49222575680483527,1
0.013414362910445746,0.49222575680483527,0.03345726038318764,1.2330540567563637,1
0.03345726038318764,1.2330540567563637,-0.0031326383496055378,-0.11938675228727544,0
-0.0031326383496055378,-0.11938675228727544,0.003132638349605505,0.11219125643700303,1
0.003132638349605505,0.11219125643700303,0.0010003981056100162,0.03337910279526135,1
0.0010003981056100162,0.03337910279526135,0.0049869385414406065,0.1807301521024243,1
0.0049869385414406065,0.1807301521024243,-0.04242449627283631,-1.571697744088301,0
-0.04242449627283631,-1.571697744088301,-0.00442128589065784,-0.16701791780976688,0
-0.00442128589065784,-0.16701791780976688,-0.02467309930999895,-0.9155681973684031,0
-0.02467309930999895,-0.9155681973684031,-0.07775214081160826,-2.8774829420889176,0
-0.07775214081160826,-2.8774829420889176,-0.013079702642034986,-0.48705149433821426,0
-0.013079702642034986,-0.48705149433821426,0.03775112478342273,1.3917644561970983,1
0.03775112478342273,1.3917644561970983,0.06542737794442571,2.41473788636997,1
0.06542737794442571,2.41473788636997,0.019856911849217732,0.7303561261367125,1
0.019856911849217732,0.7303561261367125,0.012851995833724693,0.47143946849684176,1
0.012851995833724693,0.47143946849684176,-0.02967885818412747,-1.1005917370902072,0
-0.02967885818412747,-1.1005917370902072,0.02198751803727475,0.8091078815808099,1
0.02198751803727475,0.8091078815808099,-0.003351409979882933,-0.12747301901375266,0
-0.003351409979882933,-0.12747301901375266,-0.007256706353829673,-0.2718211142655738,0
-0.007256706353829673,-0.2718211142655738,0.0099645503530849,0.36471331627587394,1
0.0099645503530849,0.36471331627587394,-0.0094444500214193,-0.3526847929923814,0
-0.0094444500214193,-0.3526847929923814,0.014581809038675345,0.5353770592369088,1
0.014581809038675345,0.5353770592369088,-0.011726131889196663,-0.4370206282394842,0
-0.011726131889196663,-0.4370206282394842,-0.009376305339577885,-0.3501660200022002,0
-0.009376305339577885,-0.3501660200022002,0.010671622530182615,0.3908482141674944,1
0.010671622530182615,0.3908482141674944,0.03422946804580567,1.2615965013148351,1
0.03422946804580567,1.2615965013148351,-0.0035087600984162453,-0.13328901547677593,0
-0.0035087600984162453,-0.13328901547677593,-0.043619041283363455,-1.6158506790902354,0
-0.043619041283363455,-1.6158506790902354,0.0034035182601548143,0.1222035564997152,1
0.0034035182601548143,0.1222035564997152,-0.01713493143140716,-0.6369414119028177,0
-0.01713493143140716,-0.6369414119028177,-0.02940992044931329,-1.090651223990933,0
-0.02940992044931329,-1.090651223990933,0.0030075376889277523,0.10756726881751072,1
0.0030075376889277523,0.10756726881751072,-0.006436190802423769,-0.24149310695732357,0
-0.006436190802423769,-0.24149310695732357,-0.04725954054719169,-1.7504113075754397,0
-0.04725954054719169,-1.7504113075754397,0.010031568224038083,0.3671904399288856,1
0.010031568224038083,0.3671904399288856,0.0373653737377241,1.3775062736275325,1
0.0373653737377241,1.3775062736275325,0.010793100052434649,0.3953382828521588,1
0.010793100052434649,0.3953382828521588,0.046075210341299466,1.6994404377202068,1
0.046075210341299466,1.6994404377202068,0.04553451597485731,1.679455219074576,1
0.04553451597485731,1.679455219074576,0.02679216882938337,0.9866980370470725,1
0.02679216882938337,0.9866980370470725,0.011163915772133466,0.4090444238726066,1
0.011163915772133466,0.4090444238726066,0.03829288553360139,1.4117890906633053,1
0.03829288553360139,1.4117890906633053,0.0029827041765908345,0.10664936915996848,1
0.0029827041765908345,0.10664936915996848,-0.01465443935870604,-0.5452571268456521,0
-0.01465443935870604,-0.5452571268456521,-0.008756112340510698,-0.32724236209467267,0
-0.008756112340510698,-0.32724236209467267,0.005845918754634649,0.21247989546652532,1
0.005845918754634649,0.21247989546652532,0.015730148826924067,0.577822150534311,1
0.015730148826924067,0.577822150534311,0.004122779678536755,0.14878899478403945,1
0.004122779678536755,0.14878899478403945,-0.031225361776733854,-1.1577538130294596,0
-0.031225361776733854,-1.1577538130294596,0.0007072747569749842,0.02254463775143638,1
0.0007072747569749842,0.02254463775143638,-0.012926405395261666,-0.4813853006719153,0
-0.012926405395261666,-0.4813853006719153,0.023824741113640708,0.877015570583707,1
0.023824741113640708,0.877015570583707,-0.004321711326429514,-0.16333742923589636,0
-0.004321711326429514,-0.16333742923589636,-0.02416893995610701,-0.896933390821277,0
-0.02416893995610701,-0.896933390821277,-0.008308825651552802,-0.3107096907170799,0
-0.008308825651552802,-0.3107096907170799,0.024958056985398405,0.9189053458382168,1
0.024958056985398405,0.9189053458382168,0.008572605350091847,0.31326405592837286,1
0.008572605350091847,0.31326405592837286,0.0038513421061158255,0.13875608234744963,1
0.0038513421061158255,0.13875608234744963,0.0025593455460078446,0.0910011299275349,1
0.0025593455460078446,0.0910011299275349,0.027276470987448117,1.0045988792237042,1
0.027276470987448117,1.0045988792237042,-0.022639839013751793,-0.8404145540053979,0
-0.022639839013751793,-0.8404145540053979,0.0,-0.0035977479251355846,0
0.0,-0.0035977479251355846,-0.01397489370373648,-0.5201396680054219,0
-0.01397489370373648,-0.5201396680054219,0.001172129809225167,0.0397266733603463,1
0.001172129809225167,0.0397266733603463,0.014074079967638608,0.5166103083195995,1
0.014074079967638608,0.5166103083195995,-0.03838025043246127,-1.422213779776967,0
-0.03838025043246127,-1.422213779776967,-0.019756987490066876,-0.7338582042456541,0
-0.019756987490066876,-0.7338582042456541,0.00683176440547239,0.24891885637614372,1
0.00683176440547239,0.24891885637614372,0.030414232468016528,1.1205772454486593,1
0.030414232468016528,1.1205772454486593,-0.021577966754045684,-0.8011654872477786,0
-0.021577966754045684,-0.8011654872477786,0.02581476966913811,0.9505712764704994,1
0.02581476966913811,0.9505712764704994,-0.02979958229962261,-1.1050539582519454,0
-0.02979958229962261,-1.1050539582519454,-0.00024206525540127407,-0.012544996788736443,0
-0.00024206525540127407,-0.012544996788736443,-0.0007263627401936862,-0.030445666231241068,0
-0.0007263627401936862,-0.030445666231241068,0.030650538497834202,1.1293116210336367,1
0.030650538497834202,1.1293116210336367,-0.019091119077340842,-0.709246285491785,0
-0.019091119077340842,-0.709246285491785,-0.018242755118185905,-0.6778889415520856,0
-0.018242755118185905,-0.6778889415520856,0.0170448815361691,0.6264174795881706,1
0.0170448815361691,0.6264174795881706,0.007403935591612262,0.2700675255087242,1
0.007403935591612262,0.2700675255087242,-0.03869262440258606,-1.4337597889082003,0
-0.03869262440258606,-1.4337597889082003,0.001606392123550505,0.05577793603293062,1
0.001606392123550505,0.05577793603293062,-0.006192737319105441,-0.23249454622481078,0
-0.006192737319105441,-0.23249454622481078,-0.05490267403674565,-2.0329178462168436,0
-0.05490267403674565,-2.0329178462168436,0.012002729231630283,0.4400487609461563,1
0.012002729231630283,0.4400487609461563,0.016335775969406136,0.6002074232714325,1
0.016335775969406136,0.6002074232714325,-0.0025548934613008364,-0.09803206721788635,0
-0.0025548934613008364,-0.09803206721788635,-0.04299350215700916,-1.592729416899454,0
-0.04299350215700916,-1.592729416899454,0.025965230966478233,0.9561326473884806,1
0.025965230966478233,0.9561326473884806,0.0057084019949981265,0.2073969823101357,1
0.0057084019949981265,0.2073969823101357,-0.01959566216379564,-0.7278952756140435,0
-0.01959566216379564,-0.7278952756140435,-0.03353768238257361,-1.2432221214762227,0
-0.03353768238257361,-1.2432221214762227,-0.025842697087152044,-0.9587990293403674,0
-0.025842697087152044,-0.9587990293403674,-0.016657645225401464,-0.6192998942995676,0
-0.016657645225401464,-0.6192998942995676,-0.00628307720370226,-0.23583370131527098,0
-0.00628307720370226,-0.23583370131527098,0.05408990689952193,1.995680740996231,1
0.05408990689952193,1.995680740996231,-0.0036707847804405063,-0.13927779379076288,0
-0.0036707847804405063,-0.13927779379076288,-0.04072552764889054,-1.5089002349427063,0
-0.04072552764889054,-1.5089002349427063,0.00847580294734054,0.30968603236371595,1
0.00847580294734054,0.30968603236371595,-0.0067748422554468266,-0.2540103879822045,0
-0.0067748422554468266,-0.2540103879822045,0.0025459745468643198,0.09050690924025041,1
0.0025459745468643198,0.09050690924025041,-0.015804423795178917,-0.5877630078542013,0
-0.015804423795178917,-0.5877630078542013,0.006437286460742816,0.23433810897872642,1
0.006437286460742816,0.23433810897872642,-0.040893258595271584,-1.515099928975254,0
-0.040893258595271584,-1.515099928975254,-0.028018109702417478,-1.0392069260355417,0
-0.028018109702417478,-1.0392069260355417,0.0009161332225858289,0.030264492738440903,1
0.0009161332225858289,0.030264492738440903,-0.0286419230391445,-1.062264399355608,0
-0.0286419230391445,-1.062264399355608,-0.01184941618165543,-0.441577479010046,0
-0.01184941618165543,-0.441577479010046,0.019671734139226262,0.723511562456812,1
0.019671734139226262,0.723511562456812,0.016843540671332986,0.618975491182544,1
0.016843540671332986,0.618975491182544,-0.035720882013199215,-1.3239178428912919,0
-0.035720882013199215,-1.3239178428912919,-0.03211250783279737,-1.1905446261050667,0
-0.03211250783279737,-1.1905446261050667,-0.012209322698692612,-0.4548803925992984,0
-0.012209322698692612,-0.4548803925992984,0.056632572683903204,2.0896630992331016,1
0.056632572683903204,2.0896630992331016,0.034988491539288076,1.2896516308221617,1
0.034988491539288076,1.2896516308221617,-0.06945815340139345,-2.5709194523896284,0
-0.06945815340139345,-2.5709194523896284,0.06960964354295093,2.5693233557371067,1
0.06960964354295093,2.5693233557371067,0.0006056157034366812,0.01878710200043602,1
0.0006056157034366812,0.01878710200043602,0.03801493547758724,1.4015154629231827,1
0.03801493547758724,1.4015154629231827,0.03423176334709553,1.261681340553012,1
0.03423176334709553,1.261681340553012,-0.027551530751710577,-1.0219611714576196,0
-0.027551530751710577,-1.0219611714576196,-0.028332062758319055,-1.0508113015498337,0
-0.028332062758319055,-1.0508113015498337,0.044127998787680076,1.6274673396750925,1
0.044127998787680076,1.6274673396750925,-0.02524840082894621,-0.9368325702875809,0
-0.02524840082894621,-0.9368325702875809,-0.020369780064419758,-0.7565083266492718,0
-0.020369780064419758,-0.7565083266492718,0.020223624792299257,0.7439106197703189,1
0.020223624792299257,0.7439106197703189,-0.042388139951791186,-1.5703539368094892,0
-0.042388139951791186,-1.5703539368094892,0.0030446755415174595,0.10893996317147328,1
0.0030446755415174595,0.10893996317147328,-0.003502148377448083,-0.1330446321479055,0
-0.003502148377448083,-0.1330446321479055,0.032120418204202236,1.1836415144775767,1
0.032120418204202236,1.1836415144775767,0.0028026044826893687,0.09999249980082181,1
0.0028026044826893687,0.09999249980082181,0.042252703051328264,1.5581524038402284,1
0.042252703051328264,1.5581524038402284,-0.01939040823929592,-0.7203086521653979,0
-0.01939040823929592,-0.7203086521653979,0.003592732229648977,0.12919730895182835,1
0.003592732229648977,0.12919730895182835,0.03523476141947666,1.2987542915985038,1
0.03523476141947666,1.2987542915985038,-0.05977679755751914,-2.21307586212044,0
-0.05977679755751914,-2.21307586212044,0.021812702442935195,0.8026463238277096,1
0.021812702442935195,0.8026463238277096,-0.014780687401648689,-0.5499235241643335,0
-0.014780687401648689,-0.5499235241643335,-0.014706147389695449,-0.5471683661135185,0
-0.014706147389695449,-0.5471683661135185,-0.04174838237745877,-1.546707130412442,0
-0.04174838237745877,-1.546707130412442,0.004315647745486257,0.15591781048284023,1
0.004315647745486257,0.15591781048284023,0.02999775614445445,1.105183390983547,1
0.02999775614445445,1.105183390983547,0.03303052567648175,1.2172810305395116,1
0.03303052567648175,1.2172810305395116,0.03071482177643431,1.1316876683124992,1
0.03071482177643431,1.1316876683124992,0.05529727562757517,2.040307667987938,1
0.05529727562757517,2.040307667987938,-0.0672718653733507,-2.4901095772095543,0
-0.0672718653733507,-2.4901095772095543,0.023807378184499198,0.8763737996373867,1
0.023807378184499198,0.8763737996373867,0.00013830356239231877,0.0015142471416298364,1
0.00013830356239231877,0.0015142471416298364,0.03947618335030218,1.4555263053586853,1
0.03947618335030218,1.4555263053586853,-0.005334788970257794,-0.20078294277089792,0
-0.005334788970257794,-0.20078294277089792,-0.015769558862734262,-0.5864743254834999,0
-0.015769558862734262,-0.5864743254834999,0.019240422536185284,0.7075693643756827,1
0.019240422536185284,0.7075693643756827,0.019269423933996686,0.7086413179824933,1
0.019269423933996686,0.7086413179824933,-0.011437747280591683,-0.42636131714858194,0
-0.011437747280591683,-0.42636131714858194,0.0043538803394306365,0.15733096881551503,1
0.0043538803394306365,0.15733096881551503,-0.0007901693859386828,-0.03280409614174485,0
-0.0007901693859386828,-0.03280409614174485,-0.02076758889791285,-0.77121219080979,0
-0.02076758889791285,-0.77121219080979,-0.000538122810308499,-0.023487916363513946,0
-0.000538122810308499,-0.023487916363513946,0.003090719717751896,0.11064185427024363,1
0.003090719717751896,0.11064185427024363,0.012268432251516418,0.4498697120727054,1
0.012268432251516418,0.4498697120727054,-0.024010184033128233,-0.8910654328233103,0
-0.024010184033128233,-0.8910654328233103,-0.014770533720296389,-0.5495482224144391,0
-0.014770533720296389,-0.5495482224144391,-0.0074678939966603035,-0.2796270606174804,0
-0.0074678939966603035,-0.2796270606174804,-0.024307531528739934,-0.9020560313616924,0
-0.024307531528739934,-0.9020560313616924,0.003265936299132904,0.11711823336085887,1
0.003265936299132904,0.11711823336085887,0.009593757202778247,0.3510080094683662,1
0.009593757202778247,0.3510080094683662,0.0032241666745559195,0.11557433882130616,1
0.0032241666745559195,0.11557433882130616,0.027879314583093597,1.0268812661244047,1
0.027879314583093597,1.0268812661244047,0.007323071826279948,0.26707862802619753,1
0.007323071826279948,0.26707862802619753,0.04620673978067429,1.7043020467314862,1
0.04620673978067429,1.7043020467314862,0.0034773251791674733,0.12493161786964288,1
0.0034773251791674733,0.12493161786964288,0.0003856132190331185,0.010655340276490644,1
0.0003856132190331185,0.010655340276490644,-0.027359686229668063,-1.014870188164757,0
-0.027359686229668063,-1.014870188164757,0.022593234472084736,0.8314964547530896,1
0.022593234472084736,0.8314964547530896,0.021588560416612806,0.7943615557928517,1
0.021588560416612806,0.7943615557928517,0.0030284627962142434,0.10834070547647866,1
0.0030284627962142434,0.10834070547647866,-0.002649330711088322,-0.1015226696773016,0
-0.002649330711088322,-0.1015226696773016,0.02198982267509905,0.8091930659172414,1
0.02198982267509905,0.8091930659172414,-0.014438837234769296,-0.5372880118432319,0
-0.014438837234769296,-0.5372880118432319,0.037164319137419875,1.3700748661704332,1
0.037164319137419875,1.3700748661704332,0.020683424260000107,0.7609057901761296,1
0.020683424260000107,0.7609057901761296,-0.03149302000544632,-1.1676470328503343,0
-0.03149302000544632,-1.1676470328503343,0.008874939383380315,0.3244389675499681,1
0.008874939383380315,0.3244389675499681,0.0019346563620657655,0.06791128342368964,1
0.0019346563620657655,0.06791128342368964,-0.026315716941324067,-0.9762828534674007,0
-0.026315716941324067,-0.9762828534674007,-0.016128385703889685,-0.599737331946097,0
-0.016128385703889685,-0.599737331946097,0.02391154791939278,0.8802241355338092,1
0.02391154791939278,0.8802241355338092,-0.03226491944885801,-1.1961780849686179,0
-0.03226491944885801,-1.1961780849686179,-0.0005085293219802228,-0.02239407782656148,0
-0.0005085293219802228,-0.02239407782656148,0.013765500540599584,0.5052045536055301,1
0.013765500540599584,0.5052045536055301,0.007372683525746393,0.2689123824034485,1
0.007372683525746393,0.2689123824034485,0.002238532280597869,0.07914318641718186,1
0.002238532280597869,0.07914318641718186,-0.023249535519354967,-0.8629502390951743,0
-0.023249535519354967,-0.8629502390951743,0.025607033211866866,0.9428928933082092,1
0.025607033211866866,0.9428928933082092,0.010846861454184795,0.3973254190891094,1
0.010846861454184795,0.3973254190891094,-0.014322951468198074,-0.5330046263918872,0
-0.014322951468198074,-0.5330046263918872,-0.004112434230732975,-0.15560210078677814,0
-0.004112434230732975,-0.15560210078677814,0.010434831799299268,0.38209592299586304,1
0.010434831799299268,0.38209592299586304,0.004315913787591997,0.1559276439673042,1
0.004315913787591997,0.1559276439673042,0.014900144516623819,0.5471434184304114,1
0.014900144516623819,0.5471434184304114,0.007126973071769857,0.2598303992147747,1
0.007126973071769857,0.2598303992147747,-0.009432876283647758,-0.3522570029241522,0
-0.009432876283647758,-0.3522570029241522,-0.008909601192706002,-0.33291563790661555,0
-0.008909601192706002,-0.33291563790661555,-0.0025777843290469772,-0.09887816258208465,0
-0.0025777843290469772,-0.09887816258208465,-0.007525797139401371,-0.2817672844477451,0
-0.007525797139401371,-0.2817672844477451,-0.003225035537445153,-0.12280194969975614,0
-0.003225035537445153,-0.12280194969975614,-0.00973788961121652,-0.36353094698501615,0
-0.00973788961121652,-0.36353094698501615,0.019381866505070185,0.7127974355739666,1
0.019381866505070185,0.7127974355739666,0.04980334051824446,1.8372400919239122,1
0.04980334051824446,1.8372400919239122,-0.0007026298335981146,-0.029568447312668184,0
-0.0007026298335981146,-0.029568447312668184,-0.00917976045068813,-0.3429013011112124,0
-0.00917976045068813,-0.3429013011112124,-0.03635893792074634,-1.3475017520493873,0
-0.03635893792074634,-1.3475017520493873,-0.002086507932533932,-0.0807195376562204,0
-0.002086507932533932,-0.0807195376562204,0.019347247519599903,0.7115178439287528,1
0.019347247519599903,0.7115178439287528,-0.006528869722853579,-0.24491871780808674,0
-0.006528869722853579,-0.24491871780808674,-0.02779667461610417,-1.0310222122851367,0
-0.02779667461610417,-1.0310222122851367,0.00881608846391548,0.3222637118676491,1
0.00881608846391548,0.3222637118676491,0.02803697815873852,1.032708848631782,1
0.02803697815873852,1.032708848631782,0.020464737497428817,0.7528226603413378,1
0.020464737497428817,0.7528226603413378,-0.015548413302061396,-0.5783003132191596,0
-0.015548413302061396,-0.5783003132191596,0.010708032524612427,0.3921940053292446,1
0.010708032524612427,0.3921940053292446,-0.04156194328147397,-1.5398159432120504,0
-0.04156194328147397,-1.5398159432120504,-0.03094517280122241,-1.1473974300426384,0
-0.03094517280122241,-1.1473974300426384,0.03942139149693106,1.4535010814288956,1
0.03942139149693106,1.4535010814288956,0.020462030174576786,0.7527225919061917,1
0.020462030174576786,0.7527225919061917,-0.0002397731329689686,-0.012460275047924518,0
-0.0002397731329689686,-0.012460275047924518,0.016171584707040627,0.5941385635204629,1
0.016171584707040627,0.5941385635204629,-0.024114772836314455,-0.8949312583789111,0
-0.024114772836314455,-0.8949312583789111,0.0,-0.0035977479251355846,0
0.0,-0.0035977479251355846,-0.013993067729663052,-0.5208114188213291,0
-0.013993067729663052,-0.5208114188213291,0.011331224456325489,0.41522851019274415,1
0.011331224456325489,0.41522851019274415,0.004352045131149641,0.15726313559765243,1
0.004352045131149641,0.15726313559765243,0.026661872683698525,0.9818820132047504,1
0.026661872683698525,0.9818820132047504,-0.015386776338215662,-0.572325865797173,0
-0.015386776338215662,-0.572325865797173,0.009378604335022456,0.34305549993395434,1
0.009378604335022456,0.34305549993395434,-0.006282232392737259,-0.23580247529758402,0
-0.006282232392737259,-0.23580247529758402,-0.010158419974723477,-0.37907464742546143,0
-0.010158419974723477,-0.37907464742546143,-0.014641184496849464,-0.5447671988405494,0
-0.014641184496849464,-0.5447671988405494,0.0008528747903338959,0.027926325969562675,1
0.0008528747903338959,0.027926325969562675,-0.0075795320365427445,-0.2837534410177447,0
-0.0075795320365427445,-0.2837534410177447,-0.006278035059620457,-0.2356473329005589,0
-0.006278035059620457,-0.2356473329005589,-0.02792397435213188,-1.0357274824265394,0
-0.02792397435213188,-1.0357274824265394,0.02135755779905293,0.7858232056524105,1
0.02135755779905293,0.7858232056524105,-0.008363004328401293,-0.3127122503329177,0
-0.008363004328401293,-0.3127122503329177,0.0015030406931927436,0.05195784641995786,1
0.0015030406931927436,0.05195784641995786,0.022278092643152777,0.8198481396485101,1
0.022278092643152777,0.8198481396485101,-0.03741084786648346,-1.3863825904043383,0
-0.03741084786648346,-1.3863825904043383,0.015007564207794954,0.5511138796523908,1
0.015007564207794954,0.5511138796523908,0.030570645443551932,1.1263586031048487,1
0.030570645443551932,1.1263586031048487,0.02244851616925549,0.8261473571786163,1
0.02244851616925549,0.8261473571786163,0.06791606788255615,2.5067251820431156,1
0.06791606788255615,2.5067251820431156,0.005530375557170138,0.2008167449237049,1
0.005530375557170138,0.2008167449237049,-0.003093312312719663,-0.1179331779680127,0
-0.003093312312719663,-0.1179331779680127,-0.010678623265045872,-0.3983024721310882,0
-0.010678623265045872,-0.3983024721310882,0.009571588099213706,0.35018859204992636,1
0.009571588099213706,0.35018859204992636,0.010138925189995584,0.3711585826929951,1
0.010138925189995584,0.3711585826929951,-0.007152645586146266,-0.267974806029981,0
-0.007152645586146266,-0.267974806029981,-0.003207799965506103,-0.12216488614765925,0
-0.003207799965506103,-0.12216488614765925,-0.00044327255583252566,-0.01998204836868094,0
-0.00044327255583252566,-0.01998204836868094,0.01659837060682903,0.6099134819429873,1
0.01659837060682903,0.6099134819429873,0.00032697998437075394,0.008488130689421077,1
0.00032697998437075394,0.008488130689421077,-0.006450620588892836,-0.24202646268560987,0
-0.006450620588892836,-0.24202646268560987,0.0004386546416398084,0.012615864546505236,1
0.0004386546416398084,0.012615864546505236,-0.0052764299737958755,-0.19862586961345857,0
-0.0052764299737958755,-0.19862586961345857,-0.005304502967704404,-0.19966350742905326,0
-0.005304502967704404,-0.19966350742905326,-0.0007759208359783029,-0.03227743930192026,0
-0.0007759208359783029,-0.03227743930192026,0.010589102761867208,0.3877981072776778,1
0.010589102761867208,0.3877981072776778,-0.011809636731434611,-0.4401071455654842,0
-0.011809636731434611,-0.4401071455654842,-0.01769761526911136,-0.6577394083733141,0
-0.01769761526911136,-0.6577394083733141,0.0006778715541766433,0.021457832574098664,1
0.0006778715541766433,0.021457832574098664,0.004057264629484812,0.14636741863835495,1
0.004057264629484812,0.14636741863835495,0.06446117088245337,2.3790248096506184,1
0.06446117088245337,2.3790248096506184,-0.005392581210868991,-0.20291906742156826,0
-0.005392581210868991,-0.20291906742156826,0.011699744633485132,0.42884980305792525,1
0.011699744633485132,0.42884980305792525,-0.029564028426414514,-1.0963473839817792,0
-0.029564028426414514,-1.0963473839817792,0.0035554831656125887,0.1278205039852614,1
0.0035554831656125887,0.1278205039852614,-0.02814016808894038,-1.0437184647043176,0
-0.02814016808894038,-1.0437184647043176,-0.021806898174160535,-0.8096272815068086,0
-0.021806898174160535,-0.8096272815068086,0.027872485306732715,1.0266288414835456,1
0.027872485306732715,1.0266288414835456,0.00021992384281984602,0.004531107037906107,1
0.00021992384281984602,0.004531107037906107,-0.010164689741157137,-0.3793063913843605,0
-0.010164689741157137,-0.3793063913843605,0.0038791787657650937,0.13978498474403886,1
0.0038791787657650937,0.13978498474403886,0.03393099699113524,1.2505643736338474,1
0.03393099699113524,1.2505643736338474,-0.009778147495721937,-0.36501896438261816,0
-0.009778147495721937,-0.36501896438261816,-0.031369106404347175,-1.1630669214882923,0
-0.031369106404347175,-1.1630669214882923,-0.005474544234590776,-0.20594859584206116,0
-0.005474544234590776,-0.20594859584206116,-0.007873222301237624,-0.2946088604900101,0
-0.007873222301237624,-0.2946088604900101,0.059188889214353384,2.1841500182011266,1
0.059188889214353384,2.1841500182011266,0.011533950994392502,0.4227217160406259,1
0.011533950994392502,0.4227217160406259,0.017313699220837288,0.6363535553776356,1
0.017313699220837288,0.6363535553776356,-0.006223425076397906,-0.2336288312799142,0
-0.006223425076397906,-0.2336288312799142,-0.01014389059690886,-0.37853761058832774,0
-0.01014389059690886,-0.37853761058832774,0.023271337960932434,0.8565606080531523,1
0.023271337960932434,0.8565606080531523,-0.0024675919153854414,-0.09480521561463884,0
-0.0024675919153854414,-0.09480521561463884,-0.007232152006126584,-0.27091353312916194,0
-0.007232152006126584,-0.27091353312916194,0.008775139769372163,0.32075016065555434,1
0.008775139769372163,0.32075016065555434,-0.012827297410467979,-0.4777220578705099,0
-0.012827297410467979,-0.4777220578705099,0.0025994295070309037,0.09248271874174809,1
0.0025994295070309037,0.09248271874174809,-0.008342103007506983,-0.3119396928698098,0
-0.008342103007506983,-0.3119396928698098,-0.010738040066951853,-0.40049864403709273,0
-0.010738040066951853,-0.40049864403709273,-0.007436606774960547,-0.27847061807749535,0
-0.007436606774960547,-0.27847061807749535,-0.006955263603121175,-0.26067914635181294,0
-0.006955263603121175,-0.26067914635181294,0.02051190846141965,0.7545661999222757,1
0.02051190846141965,0.7545661999222757,-0.0015791327755966564,-0.061965868159947646,0
-0.0015791327755966564,-0.061965868159947646,-0.010911771000958125,-0.4069201104275632,0
-0.010911771000958125,-0.4069201104275632,-0.002773276517035308,-0.10610397139930589,0
-0.002773276517035308,-0.10610397139930589,-0.010199289369752814,-0.3805852675581447,0
-0.010199289369752814,-0.3805852675581447,-0.005735622956132774,-0.21559862302483343,0
-0.005735622956132774,-0.21559862302483343,-0.004350687000273344,-0.16440843202992192,0
-0.004350687000273344,-0.16440843202992192,-0.010299146666407208,-0.3842762065263672,0
-0.010299146666407208,-0.3842762065263672,-0.004193857601004925,-0.15861168246312646,0
-0.004193857601004925,-0.15861168246312646,0.008150782933900655,0.2976725984610401,1
0.008150782933900655,0.2976725984610401,-0.002416269306605252,-0.09290822237484338,0
-0.002416269306605252,-0.09290822237484338,0.012457809055898402,0.4568694832500693,1
0.012457809055898402,0.4568694832500693,-0.003045453429110262,-0.11616421140865424,0
-0.003045453429110262,-0.11616421140865424,0.0176001652012286,0.6469419498717881,1
0.0176001652012286,0.6469419498717881,-0.0007495015553080502,-0.03130092625975639,0
-0.0007495015553080502,-0.03130092625975639,0.0007495015553081077,0.024105430409487354,1
0.0007495015553081077,0.024105430409487354,-0.008599462456393156,-0.3214522477912777,0
-0.008599462456393156,-0.3214522477912777,-0.01325811188664306,-0.49364588108086893,0
-0.01325811188664306,-0.49364588108086893,0.013797781128780036,0.5063977130923599,1
0.013797781128780036,0.5063977130923599,0.020187594943472293,0.742578879601998,1
0.020187594943472293,0.742578879601998,0.00684971878575335,0.24958248861985083,1
0.00684971878575335,0.24958248861985083,-0.030712639166320103,-1.1388024902311413,0
-0.030712639166320103,-1.1388024902311413,0.008733736008605391,0.31921978922387073,1
0.008733736008605391,0.31921978922387073,0.026693637122321628,0.9830560947015037,1
0.026693637122321628,0.9830560947015037,-0.004189820068109645,-0.15846244662360393,0
-0.004189820068109645,-0.15846244662360393,0.017996048020694187,0.6615746244401017,1
0.017996048020694187,0.6615746244401017,-0.010571107097939186,-0.3943284449524692,0
-0.010571107097939186,-0.3943284449524692,-0.026499329151113,-0.9830695529160842,0
-0.026499329151113,-0.9830695529160842,-0.011080730437438898,-0.41316521207811296,0
-0.011080730437438898,-0.41316521207811296,0.10349805693479537,3.8219114965125565,1
0.10349805693479537,3.8219114965125565,0.021518690050559803,0.7917789978283443,1
0.021518690050559803,0.7917789978283443,-0.009688810471151253,-0.3617168771407193,0
-0.009688810471151253,-0.3617168771407193,0.0069164659126748785,0.252049604995174,1
0.0069164659126748785,0.252049604995174,-0.004701806512975017,-0.1773865591708879,0
-0.004701806512975017,-0.1773865591708879,-0.0042409937435893795,-0.16035393497050993,0
-0.0042409937435893795,-0.16035393497050993,0.013432050090988367,0.492879512775505,1
0.013432050090988367,0.492879512775505,0.014381898592831304,0.5279879421724422,1
0.014381898592831304,0.5279879421724422,-0.005841312263543969,-0.2195051255671417,0
-0.005841312263543969,-0.2195051255671417,0.020389784800981307,0.7500522485901672,1
0.020389784800981307,0.7500522485901672,-0.035815749989534865,-1.3274243659239104,0
-0.035815749989534865,-1.3274243659239104,-0.0027867304764330443,-0.10660125847477973,0
-0.0027867304764330443,-0.10660125847477973,0.000769544398877373,0.024846256717051256,1
0.000769544398877373,0.024846256717051256,-0.005012509383135102,-0.18887080087814576,0
-0.005012509383135102,-0.18887080087814576,-0.003097173245778704,-0.11807588630039059,0
-0.003097173245778704,-0.11807588630039059,-0.0059307022353392224,-0.22280916985154992,0
-0.0059307022353392224,-0.22280916985154992,0.005639787418626092,0.2048608410144613,1
0.005639787418626092,0.2048608410144613,-0.01072342597269079,-0.3999584758991537,0
-0.01072342597269079,-0.3999584758991537,0.004986099560989412,0.1806991415929809,1
0.004986099560989412,0.1806991415929809,-0.008717420198582926,-0.3258122178869892,0
-0.008717420198582926,-0.3258122178869892,-0.0036466087423513297,-0.13838419578570768,0
-0.0036466087423513297,-0.13838419578570768,-0.0017788354094530414,-0.06934730404948769,0
-0.0017788354094530414,-0.06934730404948769,0.023847909382355773,0.8778719192802138,1
0.023847909382355773,0.8778719192802138,0.0007723675769217419,0.024950607407559684,1
0.0007723675769217419,0.024950607407559684,0.0053897873534234616,0.19562030463274724,1
0.0053897873534234616,0.19562030463274724,0.009838168871934087,0.36004198679600985,1
0.009838168871934087,0.36004198679600985,-0.02103523256611454,-0.781104872443087,0
-0.02103523256611454,-0.781104872443087,0.003681865279200355,0.1324918568413461,1
0.003681865279200355,0.1324918568413461,0.014593160715382032,0.5357966414538838,1
0.014593160715382032,0.5357966414538838,0.004279854130748124,0.15459480203101167,1
0.004279854130748124,0.15459480203101167,0.00018975747697589726,0.003416093724372893,1
0.00018975747697589726,0.003416093724372893,0.0008536441559102948,0.027954763364544118,1
0.0008536441559102948,0.027954763364544118,-0.0007587427261031001,-0.03164249967043562,0
-0.0007587427261031001,-0.03164249967043562,-0.001994388623619004,-0.07731461124231404,0
-0.001994388623619004,-0.07731461124231404,0.0026583019017874547,0.09465876819671765,1
0.0026583019017874547,0.09465876819671765,-0.0192415081361855,-0.7148049863206806,0
-0.0192415081361855,-0.7148049863206806,0.0021241798211295753,0.0749164752713316,1
0.0021241798211295753,0.0749164752713316,0.0021196772438116275,0.07475005039666506,1
0.0021196772438116275,0.07475005039666506,0.004704966782152259,0.17030787361938463,1
0.004704966782152259,0.17030787361938463,-0.014376221904608707,-0.534973615501243,0
-0.014376221904608707,-0.534973615501243,-0.01665893097110375,-0.6193474182069313,0
-0.01665893097110375,-0.6193474182069313,0.0037479567011836578,0.13493473696164096,1
0.0037479567011836578,0.13493473696164096,-0.00572616655757937,-0.21524909433650333,0
-0.00572616655757937,-0.21524909433650333,-0.012854553182458895,-0.4787294894185362,0
-0.012854553182458895,-0.4787294894185362,0.012260341440022776,0.4495706583988434,1
0.012260341440022776,0.4495706583988434,-0.012360658740437307,-0.46047409593882754,0
-0.012360658740437307,-0.46047409593882754,-0.02549779572307458,-0.9460507382538134,0
-0.02549779572307458,-0.9460507382538134,0.009727173807253341,0.35593937213252236,1
0.009727173807253341,0.35593937213252236,0.016873329795392748,0.6200765608339879,1
0.016873329795392748,0.6200765608339879,0.016199160518448524,0.5951578244089087,1
0.016199160518448524,0.5951578244089087,-0.010803454719628576,-0.4029165093183138,0
-0.010803454719628576,-0.4029165093183138,0.008731128735332407,0.31912341883486084,1
0.008731128735332407,0.31912341883486084,-0.004752987945317559,-0.179278334228011,0
-0.004752987945317559,-0.179278334228011,-0.0057734764825913415,-0.2169977702135874,0
-0.0057734764825913415,-0.2169977702135874,-0.011445902137589095,-0.42666273808105726,0
-0.011445902137589095,-0.42666273808105726,0.004433281229783661,0.16026579531427185,1
0.004433281229783661,0.16026579531427185,-0.019696092968653087,-0.7316074126703994,0
-0.019696092968653087,-0.7316074126703994,0.0004100555243534865,0.011558780087127329,1
0.0004100555243534865,0.011558780087127329,-0.013101715497904735,-0.4878651365081272,0
-0.013101715497904735,-0.4878651365081272,0.01658037627460042,0.6092483729899623,1
0.01658037627460042,0.6092483729899623,-0.009440868388605993,-0.35255240819363953,0
-0.009440868388605993,-0.35255240819363953,0.031062233151882977,1.144528734780433,1
0.031062233151882977,1.144528734780433,-0.015918145875657406,-0.5919664188461702,0
-0.015918145875657406,-0.5919664188461702,0.0010150069249052227,0.03391907595919564,1
0.0010150069249052227,0.03391907595919564,0.015102985471425029,0.5546408533651702,1
0.015102985471425029,0.5546408533651702,-0.005410844059444741,-0.20359410131230415,0
-0.005410844059444741,-0.20359410131230415,-0.04837325978884867,-1.7915767495252446,0
-0.04837325978884867,-1.7915767495252446,0.009132432365663554,0.33395645815100367,1
0.009132432365663554,0.33395645815100367,-0.009554338446681451,-0.3567465038993012,0
-0.009554338446681451,-0.3567465038993012,0.001686476994181398,0.05873804390366185,1
0.001686476994181398,0.05873804390366185,-0.0037986816081416455,-0.14400513371573564,0
-0.0037986816081416455,-0.14400513371573564,0.025777595314021948,0.9491972329051938,1
0.025777595314021948,0.9491972329051938,-0.012753511360499513,-0.4749947678650295,0
-0.012753511360499513,-0.4749947678650295,0.006241552224039292,0.22710335352400302,1
0.006241552224039292,0.22710335352400302,-0.0021801107291403886,-0.08417929694376734,0
-0.0021801107291403886,-0.08417929694376734,-0.017720017433992784,-0.6585674402358185,0
-0.017720017433992784,-0.6585674402358185,0.0012686622527100888,0.043294718653915244,1
0.0012686622527100888,0.043294718653915244,0.00168896940274424,0.058830168647646904,1
0.00168896940274424,0.058830168647646904,0.0005272637043174859,0.015891044761994412,1
0.0005272637043174859,0.015891044761994412,-0.015724966753838658,-0.5848261058950242,0
-0.015724966753838658,-0.5848261058950242,0.020247722838065366,0.7448013350125309,1
0.020247722838065366,0.7448013350125309,0.017786095535485057,0.6538143321520427,1
0.017786095535485057,0.6538143321520427,0.0017510245041376202,0.06112385773781459,1
0.0017510245041376202,0.06112385773781459,0.0039030953456362896,0.14066899261918414,1
0.0039030953456362896,0.14066899261918414,-0.006066585474472312,-0.22783170460111787,0
-0.006066585474472312,-0.22783170460111787,0.013216737870686246,0.4849211132306218,1
0.013216737870686246,0.4849211132306218,-0.006842677597028345,-0.25651772709566417,0
-0.006842677597028345,-0.25651772709566417,0.004805010614518398,0.1740057073459323,1
0.004805010614518398,0.1740057073459323,-0.007062128818571238,-0.26462911296684416,0
-0.007062128818571238,-0.26462911296684416,0.012351497633027198,0.4529399859915909,1
0.012351497633027198,0.4529399859915909,-0.0070247420675534225,-0.26324721879535984,0
-0.0070247420675534225,-0.26324721879535984,-0.003992423784886847,-0.151166258379585,0
-0.003992423784886847,-0.151166258379585,-0.019158650520512698,-0.7117423918709309,0
-0.019158650520512698,-0.7117423918709309,0.0010450254431677941,0.035028624510335456,1
0.0010450254431677941,0.035028624510335456,-0.009550327447083073,-0.3565982487871042,0
-0.009550327447083073,-0.3565982487871042,-0.01637290341780069,-0.6087752289143912,0
-0.01637290341780069,-0.6087752289143912,0.00010720977573687515,0.0003649543740379565,1
0.00010720977573687515,0.0003649543740379565,0.0029965644424165207,0.10716167418884386,1
0.0029965644424165207,0.10716167418884386,0.0017082647008695166,0.05954336407892858,1
0.0017082647008695166,0.05954336407892858,0.016189960777018106,0.5948177823160348,1
0.016189960777018106,0.5948177823160348,-0.01012772781393025,-0.3779401996075644,0
-0.01012772781393025,-0.3779401996075644,-0.013987709515502506,-0.5206133677814168,0
-0.013987709515502506,-0.5206133677814168,-0.005390848634876423,-0.20285502771229688,0
-0.005390848634876423,-0.20285502771229688,-0.00509404693180103,-0.19188460283180767,0
-0.00509404693180103,-0.19188460283180767,-0.001740033406806244,-0.06791309915497903,0
-0.001740033406806244,-0.06791309915497903,-0.0011980680780286125,-0.047880903026797275,0
-0.0011980680780286125,-0.047880903026797275,-0.03504465571281809,-1.2989230744864158,0
-0.03504465571281809,-1.2989230744864158,0.0254080843618416,0.9355393188790643,1
0.0254080843618416,0.9355393188790643,0.008873423937786637,0.3243829534440056,1
0.008873423937786637,0.3243829534440056,-0.0005454977635773892,-0.023760510388397035,0
-0.0005454977635773892,-0.023760510388397035,0.031155184124134674,1.147964401247605,1
0.031155184124134674,1.147964401247605,-0.002753969928816935,-0.105390358662069,0
-0.002753969928816935,-0.105390358662069,0.004444902846206593,0.16069535507971988,1
0.004444902846206593,0.16069535507971988,0.0003168073577999705,0.008112128683786695,1
0.0003168073577999705,0.008112128683786695,-0.009546121507745378,-0.35644278828577297,0
-0.009546121507745378,-0.35644278828577297,-0.009422972481354788,-0.35189093723800396,0
-0.009422972481354788,-0.35189093723800396,-0.013648332646646881,-0.508069273837958,0
-0.013648332646646881,-0.508069273837958,0.022858085424294797,0.841285911638411,1
0.022858085424294797,0.841285911638411,-0.007489837657243767,-0.2804381451818189,0
-0.007489837657243767,-0.2804381451818189,-0.006248693387178058,-0.23456280201659865,0
-0.006248693387178058,-0.23456280201659865,0.001511872771300815,0.052284298891150716,1
0.001511872771300815,0.052284298891150716,-0.017965550132506964,-0.6676428532029381,0
-0.017965550132506964,-0.6676428532029381,0.0021949589583014364,0.07753262335742431,1
0.0021949589583014364,0.07753262335742431,-0.017695644660549306,-0.6576665704718638,0
-0.017695644660549306,-0.6576665704718638,0.007669629224113916,0.27988812965749243,1
0.007669629224113916,0.27988812965749243,0.000996115048235163,0.033220791846561314,1
0.000996115048235163,0.033220791846561314,-0.007996502110476294,-0.29916554555118147,0
-0.007996502110476294,-0.29916554555118147,-0.005366776793414202,-0.20196528103712613,0
-0.005366776793414202,-0.20196528103712613,0.01810864229983032,0.6657363494856013,1
0.01810864229983032,0.6657363494856013,-0.029949721519355415,-1.110603424493639,0
-0.029949721519355415,-1.110603424493639,-0.0004538853481137143,-0.020374319839116,0
-0.0004538853481137143,-0.020374319839116,0.022112143912570867,0.8137143201185092,1
0.022112143912570867,0.8137143201185092,-0.0022227679595581214,-0.08575599929101967,0
-0.0022227679595581214,-0.08575599929101967,0.007537170737075963,0.27499218106024337,1
0.007537170737075963,0.27499218106024337,-0.018163040652692263,-0.6749425246463705,0
-0.018163040652692263,-0.6749425246463705,-0.02148175321708994,-0.7976092294206762,0
-0.02148175321708994,-0.7976092294206762,0.01686068363386607,0.6196091316931931,1
0.01686068363386607,0.6196091316931931,-0.005096527907747421,-0.19197630500186988,0
-0.005096527907747421,-0.19197630500186988,-0.0025011520882513316,-0.09604567128449043,0
-0.0025011520882513316,-0.09604567128449043,-0.00834428711283833,-0.312020422067858,0
-0.00834428711283833,-0.312020422067858,0.006521385481465874,0.23744658841063407,1
0.006521385481465874,0.23744658841063407,0.0011397137341294086,0.03852850598774204,1
0.0011397137341294086,0.03852850598774204,-0.00456675671149732,-0.1723948300571917,0
-0.00456675671149732,-0.1723948300571917,0.0069559618229801026,0.2535094581988463,1
0.0069559618229801026,0.2535094581988463,0.011524211399620305,0.4223617198151742,1
0.011524211399620305,0.4223617198151742,0.010948644452438379,0.4010875361015184,1
0.010948644452438379,0.4010875361015184,0.005761113350077481,0.2093453065793531,1
0.005761113350077481,0.2093453065793531,0.020231496658743544,0.744201580767515,1
0.020231496658743544,0.744201580767515,-0.022664786120379667,-0.8413366523505584,0
-0.022664786120379667,-0.8413366523505584,-0.018667124457704652,-0.6935745387455445,0
-0.018667124457704652,-0.6935745387455445,-0.002145986166529994,-0.0829179802234863,0
-0.002145986166529994,-0.0829179802234863,0.013254156410501178,0.4863041823839448,1
0.013254156410501178,0.4863041823839448,0.011206713756276623,0.4106263287781846,1
0.011206713756276623,0.4106263287781846,-0.0006622247438944188,-0.028074988896524173,0
-0.0006622247438944188,-0.028074988896524173,0.013598168546310468,0.4990196056944162,1
0.013598168546310468,0.4990196056944162,0.0006533666161064059,0.020552077723250343,1
0.0006533666161064059,0.020552077723250343,0.00032648178555675923,0.008469716197159591,1
0.00032648178555675923,0.008469716197159591,-0.00217869998271194,-0.0841271527425773,0
-0.00217869998271194,-0.0841271527425773,0.028064856686141487,1.0337392985499727,1
0.028064856686141487,1.0337392985499727,-0.00691595981332755,-0.259226394332597,0
-0.00691595981332755,-0.259226394332597,-0.008039920786546223,-0.30077039255610066,0
-0.008039920786546223,-0.30077039255610066,0.004295935012580456,0.15518918577047697,1
0.004295935012580456,0.15518918577047697,0.016580305274326877,0.6092457486682036,1
0.016580305274326877,0.6092457486682036,-0.0012657183932564603,-0.05038140317102993,0
-0.0012657183932564603,-0.05038140317102993,0.01289802744290789,0.4731408950905565,1
0.01289802744290789,0.4731408950905565,-0.005851690506905214,-0.2198887276085257,0
-0.005851690506905214,-0.2198887276085257,-0.0029386963097022215,-0.11221824025421707,0
-0.0029386963097022215,-0.11221824025421707,-0.007173029813087836,-0.2687282505961415,0
-0.007173029813087836,-0.2687282505961415,-0.022915655321589196,-0.8506093138554635,0
-0.022915655321589196,-0.8506093138554635,-0.03774863977030829,-1.398868100654953,0
-0.03774863977030829,-1.398868100654953,0.017285018417731234,0.6352934516358888,1
0.017285018417731234,0.6352934516358888,-0.008660933557551341,-0.32372435098539415,0
-0.008660933557551341,-0.32372435098539415,0.01637027332094723,0.6014825190668271,1
0.01637027332094723,0.6014825190668271,-0.008815517715273098,-0.32943811162904335,0
-0.008815517715273098,-0.32943811162904335,-0.013707193151812826,-0.5102448838282639,0
-0.013707193151812826,-0.5102448838282639,-0.006642343163516042,-0.24911293854138888,0
-0.006642343163516042,-0.24911293854138888,-0.006118316455012144,-0.22974379213338553,0
-0.006118316455012144,-0.22974379213338553,-0.011085208663406032,-0.4133307368748417,0
-0.011085208663406032,-0.4133307368748417,-0.023721964526662045,-0.8804122242600972,0
-0.023721964526662045,-0.8804122242600972,-0.019007534677183253,-0.7061568275351483,0
-0.019007534677183253,-0.7061568275351483,0.008479170782813461,0.3098105147561102,1
0.008479170782813461,0.3098105147561102,-0.004768085078125011,-0.17983635650234026,0
-0.004768085078125011,-0.17983635650234026,0.0065503172500574365,0.23851596837275915,1
0.0065503172500574365,0.23851596837275915,0.010274702193337223,0.37617719074080347,1
0.010274702193337223,0.37617719074080347,-0.005773866910439472,-0.21701220126076395,0
-0.005773866910439472,-0.21701220126076395,-0.00130078191552325,-0.05167742584572283,0
-0.00130078191552325,-0.05167742584572283,-0.013221568173621988,-0.49229514739437796,0
-0.013221568173621988,-0.49229514739437796,-0.0030021036707556827,-0.11456191174969484,0
-0.0030021036707556827,-0.11456191174969484,0.006234244433407786,0.22683324197364943,1
0.006234244433407786,0.22683324197364943,0.01565310895219129,0.5749745922157404,1
0.01565310895219129,0.5749745922157404,0.007735665209956421,0.2823289607396181,1
0.007735665209956421,0.2823289607396181,0.0025653140843323085,0.09122173985212895,1
0.0025653140843323085,0.09122173985212895,0.02279624059422329,0.8389999946254155,1
0.02279624059422329,0.8389999946254155,0.008501043124958921,0.310618963238652,1
0.008501043124958921,0.310618963238652,-0.020755674085362195,-0.7707717938892276,0
-0.020755674085362195,-0.7707717938892276,0.013164880558014727,0.48300435619293586,1
0.013164880558014727,0.48300435619293586,0.006122478431649335,0.22270213182913567,1
0.006122478431649335,0.22270213182913567,0.029294262223191044,1.0791807530703117,1
0.029294262223191044,1.0791807530703117,0.007436608149951614,0.27127517304983084,1
0.007436608149951614,0.27127517304983084,0.015567908373087762,0.5718253968332867,1
0.015567908373087762,0.5718253968332867,-0.0018252881542313536,-0.07106429671429582,0
-0.0018252881542313536,-0.07106429671429582,0.0008593211564245007,0.0281645974289793,1
0.0008593211564245007,0.0281645974289793,0.011211511014103424,0.4108036456738625,1
0.011211511014103424,0.4108036456738625,-0.0030839702860073165,-0.11758787670721337,0
-0.0030839702860073165,-0.11758787670721337,0.007004949611374576,0.25532015149027376,1
0.007004949611374576,0.25532015149027376,0.018235653379091905,0.6704309502563898,1
0.018235653379091905,0.6704309502563898,0.006005421031357616,0.21837544029300437,1
0.006005421031357616,0.21837544029300437,0.004634612987953487,0.1677074471180617,1
0.004634612987953487,0.1677074471180617,-0.00515093341996751,-0.19398724893753666,0
-0.00515093341996751,-0.19398724893753666,-0.0008266360469043027,-0.034151981819691854,0
-0.0008266360469043027,-0.034151981819691854,0.0045379868054186605,0.1641359370289923,1
0.0045379868054186605,0.1641359370289923,-0.007021923773131388,-0.26314304861396376,0
-0.007021923773131388,-0.26314304861396376,-0.0017631925672624647,-0.06876911119078472,0
-0.0017631925672624647,-0.06876911119078472,0.002281224704901065,0.08072118960561106,1
0.002281224704901065,0.08072118960561106,-0.003735612936973406,-0.1416739809218189,0
-0.003735612936973406,-0.1416739809218189,0.0032175807993348815,0.11533091080645304,1
0.0032175807993348815,0.11533091080645304,0.0028973404070567594,0.10349414191064545,1
0.0028973404070567594,0.10349414191064545,0.0015487229009337874,0.05364635839008871,1
0.0015487229009337874,0.05364635839008871,-0.002892850210914699,-0.11052367052095566,0
-0.002892850210914699,-0.11052367052095566,-0.0003104338891149138,-0.015072047518450902,0
-0.0003104338891149138,-0.015072047518450902,0.006087789862039779,0.22141996820551055,1
0.006087789862039779,0.22141996820551055,0.0024658172224888753,0.08754412332436756,1
0.0024658172224888753,0.08754412332436756,-0.008139690333989555,-0.30445808812605984,0
-0.008139690333989555,-0.30445808812605984,-0.00935462074555154,-0.34936451109114963,0
-0.00935462074555154,-0.34936451109114963,0.011215010695886325,0.4109330013874825,1
0.011215010695886325,0.4109330013874825,0.0013415706511413585,0.04598956878401658,1
0.0013415706511413585,0.04598956878401658,-0.0050658971319538885,-0.19084412610467302,0
-0.0050658971319538885,-0.19084412610467302,-0.003426279868398499,-0.13024037000689023,0
-0.003426279868398499,-0.13024037000689023,0.007976389151327095,0.2912266317717532,1
0.007976389151327095,0.2912266317717532,0.01586606860052025,0.5828460356756683,1
0.01586606860052025,0.5828460356756683,0.010707148336885476,0.39216132386233166,1
0.010707148336885476,0.39216132386233166,0.0034102737633185673,0.12245325432563715,1
0.0034102737633185673,0.12245325432563715,0.023942557662611857,0.8813703218764857,1
0.023942557662611857,0.8813703218764857,0.006431478411464436,0.23412343107206207,1
0.006431478411464436,0.23412343107206207,0.014943667574174013,0.5487521235977881,1
0.014943667574174013,0.5487521235977881,0.02326785282929182,0.8564317901438687,1
0.02326785282929182,0.8564317901438687,-0.008167168281871091,-0.305473731769546,0
-0.008167168281871091,-0.305473731769546,-0.01672878592180311,-0.6219294063870427,0
-0.01672878592180311,-0.6219294063870427,0.004303932299436266,0.15548478257396667,1
0.004303932299436266,0.15548478257396667,-0.0019105560612847443,-0.07421598068158135,0
-0.0019105560612847443,-0.07421598068158135,-0.001148132024864314,-0.04603515984409089,0
-0.001148132024864314,-0.04603515984409089,-0.019234129519358732,-0.7145322568828734,0
-0.019234129519358732,-0.7145322568828734,-0.010891542689906804,-0.406172428845725,0
-0.010891542689906804,-0.406172428845725,0.000690366362131967,0.021919667363622084,1
0.000690366362131967,0.021919667363622084,0.0020682440502929225,0.07284896970873758,1
0.0020682440502929225,0.07284896970873758,-0.0019696376905242747,-0.07639976388994299,0
-0.0019696376905242747,-0.07639976388994299,0.0021664332854598387,0.07647825356159242,1
0.0021664332854598387,0.07647825356159242,-0.000688878986344653,-0.029060186627927902,0
-0.000688878986344653,-0.029060186627927902,0.0006888789863447115,0.021864690777658898,1
0.0006888789863447115,0.021864690777658898,-0.01826538705766361,-0.6787254663744411,0
-0.01826538705766361,-0.6787254663744411,0.00020030695713326352,0.0038060250434839554,1
0.00020030695713326352,0.0038060250434839554,0.00658885955779491,0.23994057438874028,1
0.00658885955779491,0.23994057438874028,0.017947426788894345,0.6597774798633352,1
0.017947426788894345,0.6597774798633352,0.005749701145528861,0.20892348712405973,1
0.005749701145528861,0.20892348712405973,-0.018239381383451218,-0.6777642411103763,0
-0.018239381383451218,-0.6777642411103763,-0.0014855315678544896,-0.05850616760021849,0
-0.0014855315678544896,-0.05850616760021849,-0.020425228429536778,-0.7585578166554249,0
-0.020425228429536778,-0.7585578166554249,0.008661556843952766,0.3165518931317889,1
0.008661556843952766,0.3165518931317889,0.0066963237269669395,0.24391267961263272,1
0.0066963237269669395,0.24391267961263272,0.008134962531359903,0.29708784259254584,1
0.008134962531359903,0.29708784259254584,-0.009231296037845138,-0.34480616648671286,0
-0.009231296037845138,-0.34480616648671286,-0.0033962307723672965,-0.12912969123611118,0
-0.0033962307723672965,-0.12912969123611118,-0.00300634607636623,-0.11471872012235856,0
-0.00300634607636623,-0.11471872012235856,-0.010999619703089698,-0.41016718609322433,0
-0.010999619703089698,-0.41016718609322433,0.013705752833686575,0.5029961507436902,1
0.013705752833686575,0.5029961507436902,0.015099090997628331,0.5544969052954893,1
0.015099090997628331,0.5544969052954893,0.020589111919375538,0.7574198046261675,1
0.020589111919375538,0.7574198046261675,0.026777506982523812,0.9861561038710989,1
0.026777506982523812,0.9861561038710989,0.007120822176363787,0.25960304898295034,1
0.007120822176363787,0.25960304898295034,0.02124597748522966,0.7816989589305895,1
0.02124597748522966,0.7816989589305895,-0.009643304110607718,-0.3600348648585981,0
-0.009643304110607718,-0.3600348648585981,0.0008301862835930942,0.027087710300341898,1
0.0008301862835930942,0.027087710300341898,-0.004991628820772919,-0.18809901069472318,0
-0.004991628820772919,-0.18809901069472318,0.012798842791081545,0.4694748185118719,1
0.012798842791081545,0.4694748185118719,0.014802951398210673,0.5435509531803684,1
0.014802951398210673,0.5435509531803684,0.0001802473712645346,0.003064579904772223,1
0.0001802473712645346,0.003064579904772223,0.010935939460307681,0.4006179324559436,1
0.010935939460307681,0.4006179324559436,0.004802578797922225,0.1739158222104529,1
0.004802578797922225,0.1739158222104529,-0.00891192074394399,-0.33300137347467035,0
-0.00891192074394399,-0.33300137347467035,0.0026819527082464598,0.09553295251888644,1
0.0026819527082464598,0.09553295251888644,0.027560601851280488,1.0151009628222938,1
0.027560601851280488,1.0151009628222938,0.004851833876446724,0.1757363951159876,1
0.004851833876446724,0.1757363951159876,-0.020167409222173836,-0.7490282680786636,0
-0.020167409222173836,-0.7490282680786636,0.0012339098232056983,0.04201019463217953,1
0.0012339098232056983,0.04201019463217953,0.006234371467587004,0.22683793742824393,1
0.006234371467587004,0.22683793742824393,0.0011373509162295155,0.03844117119145056,1
0.0011373509162295155,0.03844117119145056,0.021195455191797254,0.7798315470554309,1
0.021195455191797254,0.7798315470554309,0.008693455077606696,0.3177309199786525,1
0.008693455077606696,0.3177309199786525,0.005332033193157511,0.19348558751297248,1
0.005332033193157511,0.19348558751297248,-0.008647089149110533,-0.32321263207933343,0
-0.008647089149110533,-0.32321263207933343,0.002635987999652342,0.09383399871383614,1
0.002635987999652342,0.09383399871383614,-0.01007092479728451,-0.3758406387875277,0
-0.01007092479728451,-0.3758406387875277,-0.012168466541721715,-0.45337026177353007,0
-0.012168466541721715,-0.45337026177353007,-0.0014771534188537793,-0.05819649331837486,0
-0.0014771534188537793,-0.05819649331837486,0.013130774918048628,0.48174373889400457,1
0.013130774918048628,0.48174373889400457,-0.03218062590250598,-1.1930624154539788,0
-0.03218062590250598,-1.1930624154539788,-0.029409955267652686,-1.090652510951125,0
-0.029409955267652686,-1.090652510951125,-0.011844245793539132,-0.44138637042190415,0
-0.011844245793539132,-0.44138637042190415,-0.023266622219785347,-0.8635818000383381,0
-0.023266622219785347,-0.8635818000383381,-0.04584496699454132,-1.698125647700585,0
-0.04584496699454132,-1.698125647700585,-0.009646549050532633,-0.3601548047690471,0
-0.009646549050532633,-0.3601548047690471,0.03021734465237136,1.1132998512523387,1
0.03021734465237136,1.1132998512523387,-0.006517197980701057,-0.2444873052886102,0
-0.006517197980701057,-0.2444873052886102,0.0410132598215637,1.512339934757768,1
0.0410132598215637,1.512339934757768,0.008673407465500254,0.3169899174157695,1
0.008673407465500254,0.3169899174157695,-0.0004644318230752402,-0.020764140079770045,0
-0.0004644318230752402,-0.020764140079770045,0.0029684594811573333,0.10612285479169015,1
0.0029684594811573333,0.10612285479169015,-0.020115769826980393,-0.7471195657364144,0
-0.020115769826980393,-0.7471195657364144,0.012024558373647704,0.4408556126596952,1
0.012024558373647704,0.4408556126596952,0.016117480316652187,0.592138749690856,1
0.016117480316652187,0.592138749690856,0.006046152841719856,0.2198809750025265,1
0.006046152841719856,0.2198809750025265,-0.023565249024329733,-0.8746196845673312,0
-0.023565249024329733,-0.8746196845673312,-0.05299766003757226,-1.9625044599132506,0
-0.05299766003757226,-1.9625044599132506,-0.0023691804327383445,-0.09116771702022107,0
-0.0023691804327383445,-0.09116771702022107,0.002664924310468555,0.09490354656628601,1
0.002664924310468555,0.09490354656628601,0.0035422709486545153,0.12733215222669197,1
0.0035422709486545153,0.12733215222669197,-0.007888764149284588,-0.29518332038945305,0
-0.007888764149284588,-0.29518332038945305,-0.0013869566941231296,-0.0548626297223415,0
-0.0013869566941231296,-0.0548626297223415,-0.002779773555722796,-0.10634411582613423,0
-0.002779773555722796,-0.10634411582613423,0.021732569967474684,0.7996844563807972,1
0.021732569967474684,0.7996844563807972,-0.021136215461376368,-0.7848374159399912,0
-0.021136215461376368,-0.7848374159399912,-0.005979075713979092,-0.22459715694235122,0
-0.005979075713979092,-0.22459715694235122,-0.001600517098247268,-0.0627562783996055,0
-0.001600517098247268,-0.0627562783996055,-0.012491326497595528,-0.4653038553349255,0
-0.012491326497595528,-0.4653038553349255,0.018081812943852926,0.6647446791842111,1
0.018081812943852926,0.6647446791842111,-0.019908115223667477,-0.7394442080712549,0
-0.019908115223667477,-0.7394442080712549,0.028630589874027494,1.0546500055162553,1
0.028630589874027494,1.0546500055162553,0.033480366799480826,1.2339081192552483,1
0.033480366799480826,1.2339081192552483,-0.004687413418129718,-0.17685455964338517,0
-0.004687413418129718,-0.17685455964338517,0.01494198328370006,0.5486898686244172,1
0.01494198328370006,0.5486898686244172,0.0160243234114268,0.5886954715011269,1
0.0160243234114268,0.5886954715011269,-0.011594312723432615,-0.43214831032203643,0
-0.011594312723432615,-0.43214831032203643,-0.023888855423871494,-0.8865808682810132,0
-0.023888855423871494,-0.8865808682810132,0.013869818914823754,0.5090603835290879,1
0.013869818914823754,0.5090603835290879,-0.022479297871081844,-0.8344806104746183,0
-0.022479297871081844,-0.8344806104746183,0.020577643292829607,0.7569958996933426,1
0.020577643292829607,0.7569958996933426,-0.008602629377389332,-0.3215693039554809,0
-0.008602629377389332,-0.3215693039554809,0.002013897483173989,0.07084020450990959,1
0.002013897483173989,0.07084020450990959,-0.02375175372767326,-0.8815132967558312,0
-0.02375175372767326,-0.8815132967558312,0.014125187025769485,0.5184993343470047,1
0.014125187025769485,0.5184993343470047,0.04056665394825161,1.4958324277805892,1
0.04056665394825161,1.4958324277805892,0.01603275678726901,0.5890071870849906,1
0.01603275678726901,0.5890071870849906,0.005287657667210313,0.19184537329286652,1
0.005287657667210313,0.19184537329286652,0.00941177342202195,0.34428150023486886,1
0.00941177342202195,0.34428150023486886,0.0,-0.0035977479251355846,0
0.0,-0.0035977479251355846,0.0011703191134929856,0.039659746178643866,1
0.0011703191134929856,0.039659746178643866,0.015178835603932036,0.5574444362699217,1
0.015178835603932036,0.5574444362699217,0.01048978233035309,0.38412701199172306,1
0.01048978233035309,0.38412701199172306,-0.0006140054942113674,-0.026292702437382475,0
-0.0006140054942113674,-0.026292702437382475,0.007604556785681831,0.2774829133456841,1
0.007604556785681831,0.2774829133456841,-0.002179314884077851,-0.08414988081042105,0
-0.002179314884077851,-0.08414988081042105,0.007043858816531463,0.2567583188185278,1
0.007043858816531463,0.2567583188185278,0.01905474508660784,0.7007063292532976,1
0.01905474508660784,0.7007063292532976,-0.007081654253563649,-0.2653508147482814,0
-0.007081654253563649,-0.2653508147482814,0.011746792026270714,0.43058877518318284,1
0.011746792026270714,0.43058877518318284,-0.005175429372439454,-0.19489267166147983,0
-0.005175429372439454,-0.19489267166147983,-0.007770809235125911,-0.29082345482381106,0
-0.007770809235125911,-0.29082345482381106,-0.005501598846761795,-0.20694859209348948,0
-0.005501598846761795,-0.20694859209348948,-0.011705153282414425,-0.43624521412488454,0
-0.011705153282414425,-0.43624521412488454,-0.006738194491965888,-0.25265580836847684,0
-0.006738194491965888,-0.25265580836847684,0.012217636258816575,0.4479921836880318,1
0.012217636258816575,0.4479921836880318,0.02145268455728767,0.7893392938167482,1
0.02145268455728767,0.7893392938167482,0.009799825349931167,0.35862472832536163,1
0.009799825349931167,0.35862472832536163,-0.01303109726026403,-0.48525493561236915,0
-0.01303109726026403,-0.48525493561236915,0.01075868416113896,0.39406619800142423,1
0.01075868416113896,0.39406619800142423,0.012975804913710585,0.47601571653529284,1
0.012975804913710585,0.47601571653529284,0.010507659872854241,0.3847878041469716,1
0.010507659872854241,0.3847878041469716,0.03755742440221389,1.3846048763855434,1
0.03755742440221389,1.3846048763855434,-0.0028578300538157054,-0.10922925071548759,0
-0.0028578300538157054,-0.10922925071548759,0.013110249748377361,0.48098508478351676,1
0.013110249748377361,0.48098508478351676,-0.029379883351494503,-1.0895409886997116,0
-0.029379883351494503,-1.0895409886997116,-0.006322455703979493,-0.2372892147935342,0
-0.006322455703979493,-0.2372892147935342,-0.024696677617848325,-0.9164397019871111,0
-0.024696677617848325,-0.9164397019871111,-0.018676417082946282,-0.6939180140224702,0
-0.018676417082946282,-0.6939180140224702,-0.013249781764542605,-0.4933379819758388,0
-0.013249781764542605,-0.4933379819758388,0.030090866592401233,1.1086249520130314,1
0.030090866592401233,1.1086249520130314,-0.016416621414192166,-0.6103911394377091,0
-0.016416621414192166,-0.6103911394377091,0.004573186532280911,0.165436994116451,1
0.004573186532280911,0.165436994116451,0.0027001931801874813,0.09620715932140879,1
0.0027001931801874813,0.09620715932140879,-0.017768767923419478,-0.6603693624505531,0
-0.017768767923419478,-0.6603693624505531,-0.0037813936352305887,-0.14336613331179085,0
-0.0037813936352305887,-0.14336613331179085,0.015294876001054137,0.5617335371967003,1
0.015294876001054137,0.5617335371967003,-0.002207149774742058,-0.08517871782154407,0
-0.002207149774742058,-0.08517871782154407,0.002885303824864111,0.10304924412402884,1
0.002885303824864111,0.10304924412402884,0.003890389530797117,0.14019935856454685,1
0.003890389530797117,0.14019935856454685,-0.0018587468985260893,-0.07230100336751759,0
-0.0018587468985260893,-0.07230100336751759,-0.006107417613590603,-0.2293409476757545,0
-0.006107417613590603,-0.2293409476757545,-0.02891745654957827,-1.072448706409612,0
-0.02891745654957827,-1.072448706409612,0.02114465613668865,0.7779539054775887,1
0.02114465613668865,0.7779539054775887,0.003936668117469239,0.1419099139737682,1
0.003936668117469239,0.1419099139737682,0.01987295077257324,0.7309489590012558,1
0.01987295077257324,0.7309489590012558,-0.023981167405652693,-0.8899929162955844,0
-0.023981167405652693,-0.8899929162955844,0.016248102396145405,0.5969668207428932,1
0.016248102396145405,0.5969668207428932,-0.014277460824228056,-0.5313231950278919,0
-0.014277460824228056,-0.5313231950278919,0.024101614374229103,0.8872493976649807,1
0.024101614374229103,0.8872493976649807,0.03489537576316963,1.2862098728520721,1
0.03489537576316963,1.2862098728520721,-0.003475736471236148,-0.13206839168147205,0
-0.003475736471236148,-0.13206839168147205,0.007502155172098123,0.2736979309893814,1
0.007502155172098123,0.2736979309893814,-0.01644892869557329,-0.6115852855622494,0
-0.01644892869557329,-0.6115852855622494,0.00024505803392262495,0.00546012042485037,1
0.00024505803392262495,0.00546012042485037,0.006431944914641607,0.23414067402588823,1
0.006431944914641607,0.23414067402588823,0.009128772485453046,0.3338211811613337,1
0.009128772485453046,0.3338211811613337,0.014212941344724528,0.5217429214088695,1
0.014212941344724528,0.5217429214088695,0.006637748372508228,0.2417476094015157,1
0.006637748372508228,0.2417476094015157,-0.01836078693832272,-0.682251649726942,0
-0.01836078693832272,-0.682251649726942,-0.004180104688616222,-0.15810334544657675,0
-0.004180104688616222,-0.15810334544657675,0.014554432895558788,0.5343651785149798,1
0.014554432895558788,0.5343651785149798,-0.010775524111555686,-0.40188413438732434,0
-0.010775524111555686,-0.40188413438732434,-0.0023299806882935976,-0.08971881073932877,0
-0.0023299806882935976,-0.08971881073932877,-0.0059701497149880715,-0.22426723295472017,0
-0.0059701497149880715,-0.22426723295472017,-0.009676072042281875,-0.36124603760186574,0
-0.009676072042281875,-0.36124603760186574,-0.0003268849900521918,-0.015680115346781084,0
-0.0003268849900521918,-0.015680115346781084,0.004159723286388476,0.15015450943760128,1
0.004159723286388476,0.15015450943760128,0.022215998186800597,0.8175529959150074,1
0.022215998186800597,0.8175529959150074,0.021733155027246143,0.7997060814395718,1
0.021733155027246143,0.7997060814395718,0.003731894529353811,0.13434104478382997,1
0.003731894529353811,0.13434104478382997,0.0022479238356819804,0.07949031835238862,1
0.0022479238356819804,0.07949031835238862,0.005790404407563119,0.21042796662640365,1
0.005790404407563119,0.21042796662640365,-0.007417677873378782,-0.27777096544504337,0
-0.007417677873378782,-0.27777096544504337,-0.026483829246361924,-0.9824966433304435,0
-0.026483829246361924,-0.9824966433304435,0.0028628298705829225,0.10221855877197511,1
0.0028628298705829225,0.10221855877197511,-0.028350103436960688,-1.0514781235652748,0
-0.028350103436960688,-1.0514781235652748,0.012098704946332884,0.44359622835482104,1
0.012098704946332884,0.44359622835482104,0.004268510289626296,0.15417550943398906,1
0.004268510289626296,0.15417550943398906,-0.01343065239065441,-0.5000233466361034,0
-0.01343065239065441,-0.5000233466361034,-0.0037538733110104067,-0.14234892334831728,0
-0.0037538733110104067,-0.14234892334831728,0.0037538733110103685,0.13515342749804468,1
0.0037538733110103685,0.13515342749804468,-0.01039839606887224,-0.3879446764269577,0
-0.01039839606887224,-0.3879446764269577,0.012839033923949493,0.4709603686263791,1
0.012839033923949493,0.4709603686263791,-0.06400236109023473,-2.369261715614736,0
-0.06400236109023473,-2.369261715614736,0.004063123880756649,0.14658398908005918,1
0.004063123880756649,0.14658398908005918,-0.009883963051723219,-0.3689301333424687,0
-0.009883963051723219,-0.3689301333424687,0.0,-0.0035977479251355846,0
0.0,-0.0035977479251355846,0.00625383118654126,0.22755721020454897,1
0.00625383118654126,0.22755721020454897,0.015721313878132245,0.5774955919565152,1
0.015721313878132245,0.5774955919565152,-0.007872693101762042,-0.2945893001470824,0
-0.007872693101762042,-0.2945893001470824,0.009065293893735199,0.3314748768283596,1
0.009065293893735199,0.3314748768283596,0.010080153442110855,0.3689862533613784,1
0.010080153442110855,0.3689862533613784,-0.005747630540785254,-0.21604244900042996,0
-0.005747630540785254,-0.21604244900042996,0.006842667109381527,0.24932184359956616,1
0.006842667109381527,0.24932184359956616,0.0010939029361023709,0.036835241045986566,1
0.0010939029361023709,0.036835241045986566,-0.0057350269785388045,-0.21557659442001967,0
-0.0057350269785388045,-0.21557659442001967,-0.004662829381818541,-0.17594588115260681,0
-0.004662829381818541,-0.17594588115260681,0.0017829022402888067,0.06230212695319646,1
0.0017829022402888067,0.06230212695319646,-0.02048145116489067,-0.7606359290394997,0
-0.02048145116489067,-0.7606359290394997,-0.008957739367506578,-0.33469492766493425,0
-0.008957739367506578,-0.33469492766493425,-0.0013112596422168402,-0.05206470500355545,0
-0.0013112596422168402,-0.05206470500355545,0.0164834261982174,0.6056648910924631,1
0.0164834261982174,0.6056648910924631,0.0061760464746084785,0.2246821211121784,1
0.0061760464746084785,0.2246821211121784,-0.0027401942793884985,-0.10488118123596701,0
-0.0027401942793884985,-0.10488118123596701,0.010237224157792544,0.3747919224982329,1
0.010237224157792544,0.3747919224982329,-0.002379324529779872,-0.09154266451351831,0
-0.002379324529779872,-0.09154266451351831,0.01611913924983161,0.592200067404461,1
0.01611913924983161,0.592200067404461,0.006009543462598988,0.2185278141567317,1
0.006009543462598988,0.2185278141567317,-0.008020755636049396,-0.3000620076591471,0
-0.008020755636049396,-0.3000620076591471,0.0020949435903218766,0.0738358417354013,1
0.0020949435903218766,0.0738358417354013,0.03721932032241811,1.37210782744427,1
0.03721932032241811,1.37210782744427,0.013219769849810093,0.4850331816550032,1
0.013219769849810093,0.4850331816550032,-0.0026300221182447288,-0.10080898284483493,0
-0.0026300221182447288,-0.10080898284483493,0.01339643876433007,0.4915632420804539,1
0.01339643876433007,0.4915632420804539,0.004478144699385166,0.16192404497403343,1
0.004478144699385166,0.16192404497403343,0.014938469344302395,0.5485599859189029,1
0.014938469344302395,0.5485599859189029,0.003930749953303408,0.14169116598567072,1
0.003930749953303408,0.14169116598567072,0.0029188504914353405,0.10428920057238185,1
0.0029188504914353405,0.10428920057238185,-0.001151215774447206,-0.04614914181521442,0
-0.001151215774447206,-0.04614914181521442,0.006276867883817761,0.22840869573966474,1
0.006276867883817761,0.22840869573966474,-0.009353036580747104,-0.34930595697638106,0
-0.009353036580747104,-0.34930595697638106,0.019224058313944366,0.7069645077695331,1
0.019224058313944366,0.7069645077695331,-0.045444839245584366,-1.6833360714715817,0
-0.045444839245584366,-1.6833360714715817,-0.039103683268728616,-1.4489534025760118,0
-0.039103683268728616,-1.4489534025760118,0.004593917444104081,0.16620325289631507,1
0.004593917444104081,0.16620325289631507,0.0031869231438891904,0.11419773837990048,1
0.0031869231438891904,0.11419773837990048,-0.0025323507898378046,-0.09719884193201957,0
-0.0025323507898378046,-0.09719884193201957,-0.01749221773174847,-0.6501474766865047,0
-0.01749221773174847,-0.6501474766865047,-0.013322886087896632,-0.4960400739095586,0
-0.013322886087896632,-0.4960400739095586,-0.007450757338875685,-0.2789936531438007,0
-0.007450757338875685,-0.2789936531438007,-0.012141036447441423,-0.45235638690135577,0
-0.012141036447441423,-0.45235638690135577,-0.045132321304116686,-1.6717847408520086,0
-0.045132321304116686,-1.6717847408520086,-0.04585175151403888,-1.69837641803218,0
-0.04585175151403888,-1.69837641803218,0.009190755373842103,0.3361122011046228,1
0.009190755373842103,0.3361122011046228,-0.005241543142168217,-0.19733637780217914,0
-0.005241543142168217,-0.19733637780217914,-0.043343281635133825,-1.6056580135002916,0
-0.043343281635133825,-1.6056580135002916,0.0334408531548613,1.2324476105534408,1
0.0334408531548613,1.2324476105534408,-0.0016125761101298249,-0.0632020052354684,0
-0.0016125761101298249,-0.0632020052354684,0.014607083285182215,0.5363112493707308,1
0.014607083285182215,0.5363112493707308,-0.043401965376906285,-1.6078270899380278,0
-0.043401965376906285,-1.6078270899380278,0.03833723009967888,1.4134281605405004,1
0.03833723009967888,1.4134281605405004,0.00917269025494165,0.33544447572501407,1
0.00917269025494165,0.33544447572501407,0.016814879422125464,0.6179161101946518,1
0.016814879422125464,0.6179161101946518,-0.040192354180644964,-1.4891930047582074,0
-0.040192354180644964,-1.4891930047582074,0.006275012605752831,0.22834012069972107,1
0.006275012605752831,0.22834012069972107,-0.04121304941406312,-1.5269200806747594,0
-0.04121304941406312,-1.5269200806747594,-0.027333166807937563,-1.0138899736951166,0
-0.027333166807937563,-1.0138899736951166,-0.00457803288629795,-0.17281162156245522,0
-0.00457803288629795,-0.17281162156245522,0.03526356276310825,1.2998188507755353,1
0.03526356276310825,1.2998188507755353,0.03491820223898325,1.2870535881529106,1
0.03491820223898325,1.2870535881529106,0.0048362158253221306,0.1751591185880343,1
0.0048362158253221306,0.1751591185880343,-0.03220346986544498,-1.1939067771163219,0
-0.03220346986544498,-1.1939067771163219,0.03494307685768535,1.2879730071895086,1
0.03494307685768535,1.2879730071895086,-0.05129332469299095,-1.8995085853102585,0
-0.05129332469299095,-1.8995085853102585,0.018107205864967973,0.6656832557850269,1
0.018107205864967973,0.6656832557850269,-0.005770508197448101,-0.21688805605477235,0
-0.005770508197448101,-0.21688805605477235,0.017694412180840082,0.6504255195391028,1
0.017694412180840082,0.6504255195391028,0.016249684595023604,0.597025302192829,1
0.016249684595023604,0.597025302192829,-0.02069241063295411,-0.7684334415646555,0
-0.02069241063295411,-0.7684334415646555,0.045415079720827645,1.675040600023328,1
0.045415079720827645,1.675040600023328,-0.03808548623297394,-1.4113186653809693,0
-0.03808548623297394,-1.4113186653809693,-0.018817262020351628,-0.6991239437378063,0
-0.018817262020351628,-0.6991239437378063,0.014387371457508466,0.5281902309403292,1
0.014387371457508466,0.5281902309403292,-0.018508238518361652,-0.6877017750650559,0
-0.018508238518361652,-0.6877017750650559,0.0035332317893850083,0.12699804559347055,1
0.0035332317893850083,0.12699804559347055,0.018058749111149786,0.6638921906657685,1
0.018058749111149786,0.6638921906657685,-0.010640441488970746,-0.39689119213540225,0
-0.010640441488970746,-0.39689119213540225,-0.02710727259315296,-1.005540441032219,0
-0.02710727259315296,-1.005540441032219,-0.03943659159731942,-1.4612584054552136,0
-0.03943659159731942,-1.4612584054552136,-0.02313211054334802,-0.858609961175508,0
-0.02313211054334802,-0.858609961175508,-0.011016729947635619,-0.41079961727718606,0
-0.011016729947635619,-0.41079961727718606,-0.0354678756230886,-1.314566186319809,0
-0.0354678756230886,-1.314566186319809,-0.028024384566499645,-1.0394388584144176,0
-0.028024384566499645,-1.0394388584144176,-0.05173974816136054,-1.916009350211166,0
-0.05173974816136054,-1.916009350211166,0.07137153584817017,2.634446658540426,1
0.07137153584817017,2.634446658540426,-0.002249938508094707,-0.08676028079814625,0
-0.002249938508094707,-0.08676028079814625,-0.01440674103790705,-0.5361016678533619,0
-0.01440674103790705,-0.5361016678533619,-0.0035483075765507634,-0.13475077473756197,0
-0.0035483075765507634,-0.13475077473756197,0.03824559622906667,1.4100411769631034,1
0.03824559622906667,1.4100411769631034,-0.007088293973079973,-0.26559623296329365,0
-0.007088293973079973,-0.26559623296329365,0.042967041586970824,1.5845558818637853,1
0.042967041586970824,1.5845558818637853,0.006262335026297339,0.22787153028517224,1
0.006262335026297339,0.22787153028517224,0.010629942890328039,0.38930764565547904,1
0.010629942890328039,0.38930764565547904,0.03770161287081898,1.389934390155426,1
0.03770161287081898,1.389934390155426,-0.0007059623407811245,-0.029691623896010145,0
-0.0007059623407811245,-0.029691623896010145,-0.02296136323898098,-0.8522987761091986,0
-0.02296136323898098,-0.8522987761091986,0.01678818576143394,0.6169294554808571,1
0.01678818576143394,0.6169294554808571,0.0008117118891083317,0.026404857220970825,1
0.0008117118891083317,0.026404857220970825,0.0008111308696020738,0.026383381499027674,1
0.0008111308696020738,0.026383381499027674,0.0038438736431194984,0.13848003200331427,1
0.0038438736431194984,0.13848003200331427,0.019990670095267463,0.735300116603175,1
0.019990670095267463,0.735300116603175,-0.0423488307736406,-1.568900985625091,0
-0.0423488307736406,-1.568900985625091,-0.0029985124577865336,-0.11442917284793092,0
-0.0029985124577865336,-0.11442917284793092,0.006913996660607497,0.2519583361647208,1
0.006913996660607497,0.2519583361647208,0.01894729845929365,0.6967348724139383,1
0.01894729845929365,0.6967348724139383,-0.010142074921580676,-0.37847049935012117,0
-0.010142074921580676,-0.37847049935012117,0.007818532671776433,0.2853919191239988,1
0.007818532671776433,0.2853919191239988,0.0058490909248552604,0.21259714565327542,1
0.0058490909248552604,0.21259714565327542,-0.0025169910864886766,-0.09663111448964905,0
-0.0025169910864886766,-0.09663111448964905,-0.0035344493468199016,-0.13423854496710017,0
-0.0035344493468199016,-0.13423854496710017,0.005347324356684043,0.19405078157710656,1
0.005347324356684043,0.19405078157710656,-0.010418329216718253,-0.3886814481462925,0
-0.010418329216718253,-0.3886814481462925,-0.022311090297803364,-0.82826329929392,0
-0.022311090297803364,-0.82826329929392,-0.033729501505066456,-1.250312165947479,0
-0.033729501505066456,-1.250312165947479,-0.005283292999035741,-0.1988795416849686,0
-0.005283292999035741,-0.1988795416849686,0.018317678824254634,0.6734627859066651,1
0.018317678824254634,0.6734627859066651,0.014960226297892088,0.5493641693939667,1
0.014960226297892088,0.5493641693939667,0.011643782269365199,0.4267813145507809,1
0.011643782269365199,0.4267813145507809,0.002168180968793235,0.0765428516704484,1
0.002168180968793235,0.0765428516704484,0.03336855330799434,1.2297752537889537,1
0.03336855330799434,1.2297752537889537,-0.0054011025278780335,-0.2032340334987905,0
-0.0054011025278780335,-0.2032340334987905,-0.009370820904118194,-0.34996330355347705,0
-0.009370820904118194,-0.34996330355347705,-0.03534082671117943,-1.3098701871735596,0
-0.03534082671117943,-1.3098701871735596,0.0018860054601965112,0.0661130421777857,1
0.0018860054601965112,0.0661130421777857,-0.008198477541163585,-0.3066309888660284,0
-0.008198477541163585,-0.3066309888660284,-0.008904928150067342,-0.3327429122696009,0
-0.008904928150067342,-0.3327429122696009,0.011960949434940292,0.4385044904235804,1
0.011960949434940292,0.4385044904235804,-0.011003082977404786,-0.4102951961090717,0
-0.011003082977404786,-0.4102951961090717,0.025418847717069083,0.9359371554775797,1
0.025418847717069083,0.9359371554775797,0.004036639526373393,0.1456050707744726,1
0.004036639526373393,0.1456050707744726,-0.013624022026761636,-0.5071707014022686,0
-0.013624022026761636,-0.5071707014022686,-0.037990030554260604,-1.4077904196132058,0
-0.037990030554260604,-1.4077904196132058,-0.006437950812063545,-0.24155816067279093,0
-0.006437950812063545,-0.24155816067279093,-0.055247706237734666,-2.0456709733151013,0
-0.055247706237734666,-2.0456709733151013,-0.0020845438979107114,-0.08064694274159065,0
-0.0020845438979107114,-0.08064694274159065,0.008312229779092486,0.30364001869150636,1
0.008312229779092486,0.30364001869150636,0.018114950612095657,0.6659695181807687,1
0.018114950612095657,0.6659695181807687,0.01256611097450402,0.460872553482365,1
0.01256611097450402,0.460872553482365,-0.00940976992339796,-0.35140294249675114,0
-0.00940976992339796,-0.35140294249675114,0.03396907619340103,1.2519718622824543,1
0.03396907619340103,1.2519718622824543,0.010389694197928736,0.38042754084040387,1
0.010389694197928736,0.38042754084040387,0.03189338698212872,1.1752499555967624,1
0.03189338698212872,1.1752499555967624,0.010168206991103532,0.37224090060455567,1
0.010168206991103532,0.37224090060455567,-0.033485179244468546,-1.241281493351103,0
-0.033485179244468546,-1.241281493351103,-0.009653636380469139,-0.3604167676212344,0
-0.009653636380469139,-0.3604167676212344,0.021221781893568107,0.7808046381837349,1
0.021221781893568107,0.7808046381837349,-0.0019011445507312557,-0.0738681111496038,0
-0.0019011445507312557,-0.0738681111496038,0.006848275679220135,0.2495291483200711,1
0.006848275679220135,0.2495291483200711,-0.0006301602894244094,-0.026889818173269426,0
-0.0006301602894244094,-0.026889818173269426,0.018322416702678288,0.6736379080127751,1
0.018322416702678288,0.6736379080127751,-0.009223334614783555,-0.3445118952856588,0
-0.009223334614783555,-0.3445118952856588,-0.0223190937317663,-0.8285591233076185,0
-0.0223190937317663,-0.8285591233076185,-0.0027718795822861135,-0.10605233770728124,0
-0.0027718795822861135,-0.10605233770728124,0.05159749944546466,1.903556037994237,1
0.05159749944546466,1.903556037994237,0.008581205561439405,0.31358193810885604,1
0.008581205561439405,0.31358193810885604,-0.009189700098695781,-0.3432686917315376,0
-0.009189700098695781,-0.3432686917315376,0.0016219330431916197,0.05635236161651044,1
0.0016219330431916197,0.05635236161651044,0.0,-0.0035977479251355846,0
0.0,-0.0035977479251355846,0.06451947258495451,2.381179765100894,1
0.06451947258495451,2.381179765100894,-0.030759738940547034,-1.140543398486352,0
-0.030759738940547034,-1.140543398486352,0.0022496779299419896,0.07955515342278523,1
0.0022496779299419896,0.07955515342278523,-0.004995378909147309,-0.18823762197080465,0
-0.004995378909147309,-0.18823762197080465,0.019737225392505265,0.7259322590599036,1
0.019737225392505265,0.7259322590599036,0.030342679637717758,1.1179325000120752,1
0.030342679637717758,1.1179325000120752,-0.004399325902250191,-0.1662062297341721,0
-0.004399325902250191,-0.1662062297341721,-0.025269664348776463,-0.9376185153969772,0
-0.025269664348776463,-0.9376185153969772,-0.018056995534979192,-0.6710228705953344,0
-0.018056995534979192,-0.6710228705953344,-0.04201462702016434,-1.5565481010752424,0
-0.04201462702016434,-1.5565481010752424,-0.009031232010380238,-0.33741137271750626,0
-0.009031232010380238,-0.33741137271750626,-0.009842057516222153,-0.36738121524487166,0
-0.009842057516222153,-0.36738121524487166,-0.04427671811656494,-1.640159819568591,0
-0.04427671811656494,-1.640159819568591,-0.03004756325823293,-1.1142198641414247,0
-0.03004756325823293,-1.1142198641414247,0.019215378357416907,0.7066436780368741,1
0.019215378357416907,0.7066436780368741,0.0037333560330964697,0.13439506508376511,1
0.0037333560330964697,0.13439506508376511,0.005901021663493862,0.2145166166715343,1
0.005901021663493862,0.2145166166715343,0.02421947164055523,0.8916056539581669,1
0.02421947164055523,0.8916056539581669,0.002230829928370549,0.07885849102750811,1
0.002230829928370549,0.07885849102750811,0.008032194365244959,0.29328931167177397,1
0.008032194365244959,0.29328931167177397,-0.015915455305899568,-0.5918669696411683,0
-0.015915455305899568,-0.5918669696411683,0.008943802743269433,0.3269843044158073,1
0.008943802743269433,0.3269843044158073,0.00021202196989281234,0.004239036937017319,1
0.00021202196989281234,0.004239036937017319,0.008652577891462255,0.316220011869714,1
0.008652577891462255,0.316220011869714,-0.022955351191614834,-0.8520765579974936,0
-0.022955351191614834,-0.8520765579974936,0.007070234839451479,0.2577332329618492,1
0.007070234839451479,0.2577332329618492,0.020601827093423435,0.7578897846171495,1
0.020601827093423435,0.7578897846171495,-0.02885522757164128,-1.070148590471012,0
-0.02885522757164128,-1.070148590471012,-0.04468178464187569,-1.6551319435202974,0
-0.04468178464187569,-1.6551319435202974,-0.019203985334650297,-0.7134180634314851,0
-0.019203985334650297,-0.7134180634314851,-0.0005738572548819192,-0.02480873775967396,0
-0.0005738572548819192,-0.02480873775967396,-0.007836853542028864,-0.2932645934701037,0
-0.007836853542028864,-0.2932645934701037,-0.02899435724734334,-1.0752911204501898,0
-0.02899435724734334,-1.0752911204501898,-0.025085756799007927,-0.9308208995518347,0
-0.025085756799007927,-0.9308208995518347,0.01298325259702687,0.47629099881807074,1
0.01298325259702687,0.47629099881807074,0.01590659460596414,0.5843439633958322,1
0.01590659460596414,0.5843439633958322,-0.02705955531860853,-1.003776708646363,0
-0.02705955531860853,-1.003776708646363,0.02694087081532939,0.9921943800582377,1
0.02694087081532939,0.9921943800582377,0.0039083586269752,0.1408635347392431,1
0.0039083586269752,0.1408635347392431,0.0070671494407319665,0.2576191900351138,1
0.0070671494407319665,0.2576191900351138,0.015143015921317822,0.5561204642937151,1
0.015143015921317822,0.5561204642937151,-0.017140292896278945,-0.6371395830959607,0
-0.017140292896278945,-0.6371395830959607,0.017024654577704128,0.6256698480008128,1
0.017024654577704128,0.6256698480008128,-0.015379537965091785,-0.5720583200661694,0
-0.015379537965091785,-0.5720583200661694,0.003516213806000363,0.12636902457908897,1
0.003516213806000363,0.12636902457908897,0.03257469071098996,1.2004323966030757,1
0.03257469071098996,1.2004323966030757,0.0039559075614553005,0.1426210449167664,1
0.0039559075614553005,0.1426210449167664,0.03109629173348171,1.145787612701595,1
0.03109629173348171,1.145787612701595,0.01000993887299166,0.3663909729163657,1
0.01000993887299166,0.3663909729163657,-0.01978969284320494,-0.735067063952567,0
-0.01978969284320494,-0.735067063952567,-0.00575856128934297,-0.2164464728139641,0
-0.00575856128934297,-0.2164464728139641,0.03331270158240966,1.2277108547183837,1
0.03331270158240966,1.2277108547183837,-0.010583206162470516,-0.39477565221977867,0
-0.010583206162470516,-0.39477565221977867,0.011334962699552155,0.4153666836468659,1
0.011334962699552155,0.4153666836468659,-0.0007517565370816437,-0.03138427520249408,0
-0.0007517565370816437,-0.03138427520249408,-0.061242483016952357,-2.2672507272392326,0
-0.061242483016952357,-2.2672507272392326,-0.004119948854284953,-0.15587985732364404,0
-0.004119948854284953,-0.15587985732364404,0.015588900458192242,0.5726013091354646,1
0.015588900458192242,0.5726013091354646,0.017681770199423137,0.6499582449040919,1
0.017681770199423137,0.6499582449040919,-0.01115460515031711,-0.4158957792541115,0
-0.01115460515031711,-0.4158957792541115,0.01679592448157573,0.6172154951063274,1
0.01679592448157573,0.6172154951063274,0.0019833910169305513,0.06971262035919534,1
0.0019833910169305513,0.06971262035919534,0.0006603410462643866,0.02080986755848222,1
0.0006603410462643866,0.02080986755848222,-0.02393658961425442,-0.8883452259123905,0
-0.02393658961425442,-0.8883452259123905,-0.019915309700941432,-0.7397101313178889,0
-0.019915309700941432,-0.7397101313178889,-0.02102403394146848,-0.7806909473571747,0
-0.02102403394146848,-0.7806909473571747,0.0028132460226439815,0.10038583384666841,1
0.0028132460226439815,0.10038583384666841,0.01867046289033991,0.6865024384959866,1
0.01867046289033991,0.6865024384959866,0.0019511991148321469,0.06852273889938142,1
0.0019511991148321469,0.06852273889938142,0.004347801624391097,0.1571062865242068,1
0.004347801624391097,0.1571062865242068,0.0010270323149462817,0.03436356005998434,1
0.0010270323149462817,0.03436356005998434,-0.025528375220101273,-0.9471810217782622,0
-0.025528375220101273,-0.9471810217782622,-0.013902206589140046,-0.5174529969984933,0
-0.013902206589140046,-0.5174529969984933,-0.00439930260203591,-0.16620536850848563,0
-0.00439930260203591,-0.16620536850848563,0.02518075677280908,0.9271368056424387,1
0.02518075677280908,0.9271368056424387,-0.002443129472094922,-0.09390103146161294,0
-0.002443129472094922,-0.09390103146161294,-0.05728859433443893,-2.1211065564751195,0
-0.05728859433443893,-2.1211065564751195,0.0170003409408029,0.6247711640497687,1
0.0170003409408029,0.6247711640497687,-0.042865463709048146,-1.5879968423871913,0
-0.042865463709048146,-1.5879968423871913,-0.009155725533207535,-0.34201291922526805,0
-0.009155725533207535,-0.34201291922526805,-0.009369197959135257,-0.349903316040481,0
-0.009369197959135257,-0.349903316040481,0.03559361856727101,1.3120184182592072,1
0.03559361856727101,1.3120184182592072,-0.012396049834378028,-0.4617822263622449,0
-0.012396049834378028,-0.4617822263622449,-0.018437861872454123,-0.6851005039157686,0
-0.018437861872454123,-0.6851005039157686,0.007670690820548994,0.2799273685291827,1
0.007670690820548994,0.2799273685291827,-0.04559862674910829,-1.689020386074516,0
-0.04559862674910829,-1.689020386074516,-0.001066873962871645,-0.043031688314824526,0
-0.001066873962871645,-0.043031688314824526,0.012992304239773055,0.4766255668672535,1
0.012992304239773055,0.4766255668672535,0.0245897960688685,0.9052936357996622,1
0.0245897960688685,0.9052936357996622,-0.014498572640820285,-0.5394959600389383,0
-0.014498572640820285,-0.5394959600389383,0.006887153032703462,0.25096613834243875,1
0.006887153032703462,0.25096613834243875,-0.022393380538181525,-0.8313049223409302,0
-0.022393380538181525,-0.8313049223409302,-0.05107727146629954,-1.8915227965865216,0
-0.05107727146629954,-1.8915227965865216,0.006944472352810995,0.253084782841189,1
0.006944472352810995,0.253084782841189,-0.008199564011780708,-0.30667114714061544,0
-0.008199564011780708,-0.30667114714061544,0.012067489564239878,0.44244244116014275,1
0.012067489564239878,0.44244244116014275,0.026530425495421048,0.9770234443697081,1
0.026530425495421048,0.9770234443697081,-0.0039012749315035606,-0.14779720207491123,0
-0.0039012749315035606,-0.14779720207491123,-0.0008091314911744376,-0.03350497605216753,0
-0.0008091314911744376,-0.03350497605216753,0.019239103376565668,0.7075206054185662,1
0.019239103376565668,0.7075206054185662,0.0003968880075943778,0.011072080543386197,1
0.0003968880075943778,0.011072080543386197,0.011049888309025323,0.40482972528638295,1
0.011049888309025323,0.40482972528638295,0.04552048336295259,1.6789365437665078,1
0.04552048336295259,1.6789365437665078,0.0012492003507574637,0.04257536518932786,1
0.0012492003507574637,0.04257536518932786,0.011543606383165367,0.4230785998324879,1
0.011543606383165367,0.4230785998324879,-0.01680082430144429,-0.6245920987644007,0
-0.01680082430144429,-0.6245920987644007,-0.0036462090573537716,-0.13836942257451604,0
-0.0036462090573537716,-0.13836942257451604,0.07578004854553079,2.7973947039186977,1
0.07578004854553079,2.7973947039186977,-0.05299091930679763,-1.962255308106383,0
-0.05299091930679763,-1.962255308106383,0.0012304477196299528,0.04188222788935885,1
0.0012304477196299528,0.04188222788935885,0.00355982595266404,0.12798102267038433,1
0.00355982595266404,0.12798102267038433,-0.007502656287594689,-0.2809119491387316,0
-0.007502656287594689,-0.2809119491387316,-0.010798873159036137,-0.40274716505312275,0
-0.010798873159036137,-0.40274716505312275,-0.019787648544156197,-0.7349915022933343,0
-0.019787648544156197,-0.7349915022933343,-0.023048737856594104,-0.8555283285984671,0
-0.023048737856594104,-0.8555283285984671,-0.022126549770462516,-0.8214422872457364,0
-0.022126549770462516,-0.8214422872457364,-0.0014658892633714225,-0.057780146072786594,0
-0.0014658892633714225,-0.057780146072786594,-0.010187783999275632,-0.3801600044911398,0
-0.010187783999275632,-0.3801600044911398,-0.036217941161128475,-1.3422902106608015,0
-0.036217941161128475,-1.3422902106608015,-0.02518167742862983,-0.9343663308982614,0
-0.02518167742862983,-0.9343663308982614,0.014789707729344828,0.5430614388921101,1
0.014789707729344828,0.5430614388921101,0.0011286941682836134,0.03812119929753685,1
0.0011286941682836134,0.03812119929753685,-0.016491645164119294,-0.6131641774772485,0
-0.016491645164119294,-0.6131641774772485,-0.014874976247447127,-0.5534086412953395,0
-0.014874976247447127,-0.5534086412953395,-0.002039135855919353,-0.07896856452315516,0
-0.002039135855919353,-0.07896856452315516,0.0046546603925546074,0.16844844201110482,1
0.0046546603925546074,0.16844844201110482,0.004921786554966475,0.17832199552507624,1
0.004921786554966475,0.17832199552507624,-0.015425182731891699,-0.5737454481391465,0
-0.015425182731891699,-0.5737454481391465,0.015425182731891791,0.5665499522888788,1
0.015425182731891791,0.5665499522888788,-0.015571873881660005,-0.5791674663502651,0
-0.015571873881660005,-0.5791674663502651,-0.020897443592087662,-0.7760118976614107,0
-0.020897443592087662,-0.7760118976614107,-0.035519231398424354,-1.3164644054663384,0
-0.035519231398424354,-1.3164644054663384,0.04876062128246058,1.7986989618391482,1
0.04876062128246058,1.7986989618391482,0.02783821807121333,1.025362251267815,1
0.02783821807121333,1.025362251267815,0.033499036655228256,1.2345981970003708,1
0.033499036655228256,1.2345981970003708,0.0004169102768120057,0.011812146378969093,1
0.0004169102768120057,0.011812146378969093,0.007061325569041738,0.25740392729831263,1
0.007061325569041738,0.25740392729831263,-0.019926810554666698,-0.7401352274360956,0
-0.019926810554666698,-0.7401352274360956,0.010639810628723073,0.3896723783429311,1
0.010639810628723073,0.3896723783429311,-0.030971786289747026,-1.1483811214219055,0
-0.030971786289747026,-1.1483811214219055,-0.004462761128892927,-0.16855093120134718,0
-0.004462761128892927,-0.16855093120134718,0.026201185276356797,0.9648540226532746,1
0.026201185276356797,0.9648540226532746,0.035076791927869735,1.2929154017837692,1
0.035076791927869735,1.2929154017837692,0.004333110163778642,0.1565632587606745,1
0.004333110163778642,0.1565632587606745,-0.035622331544993495,-1.32027520709377,0
-0.035622331544993495,-1.32027520709377,0.04543747894671984,1.675868523254513,1
0.04543747894671984,1.675868523254513,-0.0005353441899271353,-0.023385212619400308,0
-0.0005353441899271353,-0.023385212619400308,-0.011850357817452898,-0.4416122838803478,0
-0.011850357817452898,-0.4416122838803478,-0.00720550703819561,-0.26992867820379934,0
-0.00720550703819561,-0.26992867820379934,-0.00932152463156018,-0.34814120802847787,0
-0.00932152463156018,-0.34814120802847787,-0.0035872298107917167,-0.13618942364859168,0
-0.0035872298107917167,-0.13618942364859168,0.015497874044669048,0.5692367784695375,1
0.015497874044669048,0.5692367784695375,-0.03067811587625696,-1.13752643569257,0
-0.03067811587625696,-1.13752643569257,-0.012141905317251324,-0.4523885021853372,0
-0.012141905317251324,-0.4523885021853372,0.02330578660134709,0.8578339033812722,1
0.02330578660134709,0.8578339033812722,0.017334347369499688,0.6371167550543049,1
0.017334347369499688,0.6371167550543049,-0.004511002613159318,-0.17033403949817966,0
-0.004511002613159318,-0.17033403949817966,0.0072350161911890155,0.2638239036763731,1
0.0072350161911890155,0.2638239036763731,-0.022142044346599797,-0.8220149998744302,0
-0.022142044346599797,-0.8220149998744302,0.006100043946562504,0.22187290534280713,1
0.006100043946562504,0.22187290534280713,-0.020244976927606167,-0.7518953361472762,0
-0.020244976927606167,-0.7518953361472762,-0.0015526943405442366,-0.0609886471309073,0
-0.0015526943405442366,-0.0609886471309073,-0.02880477346291891,-1.0682836988483713,0
-0.02880477346291891,-1.0682836988483713,0.04644737754545876,1.7131965324929315,1
0.04644737754545876,1.7131965324929315,-0.020471925272847833,-0.76028383172337,0
-0.020471925272847833,-0.76028383172337,0.0466359546114482,1.7201667436311563,1
0.0466359546114482,1.7201667436311563,0.00740897909578002,0.27025394419511817,1
0.00740897909578002,0.27025394419511817,0.0044190792373515276,0.15974085934013285,1
0.0044190792373515276,0.15974085934013285,-0.0022740719477224443,-0.08765230427308118,0
-0.0022740719477224443,-0.08765230427308118,0.026953685510638762,0.9926680385676099,1
0.026953685510638762,0.9926680385676099,-0.016031897182948028,-0.5961709101235407,0
-0.016031897182948028,-0.5961709101235407,0.03155419249377992,1.1627126028263801,1
0.03155419249377992,1.1627126028263801,0.01148550004005445,0.42093086528254053,1
0.01148550004005445,0.42093086528254053,0.02233466550800464,0.8219391935666669,1
0.02233466550800464,0.8219391935666669,0.008156294314665918,0.2978763108658093,1
0.008156294314665918,0.2978763108658093,0.017205032177021587,0.6323369893377091,1
0.017205032177021587,0.6323369893377091,0.008672586125244186,0.31695955892561545,1
0.008672586125244186,0.31695955892561545,0.005143863468451918,0.1865304325786335,1
0.005143863468451918,0.1865304325786335,-0.00191085730650143,-0.07422711534821572,0
-0.00191085730650143,-0.07422711534821572,-0.006115519190822115,-0.22964039927428256,0
-0.006115519190822115,-0.22964039927428256,-0.009061863563820495,-0.33854358035818705,0
-0.009061863563820495,-0.33854358035818705,0.016491529147044756,0.6059643933881032,1
0.016491529147044756,0.6059643933881032,0.004526478841909517,0.16371057811798767,1
0.004526478841909517,0.16371057811798767,0.010051506467079502,0.36792739997752544,1
0.010051506467079502,0.36792739997752544,0.03979080621901751,1.4671554385852181,1
0.03979080621901751,1.4671554385852181,0.009565126188067145,0.34994974601203915,1
0.009565126188067145,0.34994974601203915,-0.022081003654474483,-0.8197588055174735,0
-0.022081003654474483,-0.8197588055174735,0.010365189685341418,0.379521801716313,1
0.010365189685341418,0.379521801716313,-0.02269182163686563,-0.8423359427846808,0
-0.02269182163686563,-0.8423359427846808,-0.008731646712950718,-0.3263380602442463,0
-0.008731646712950718,-0.3263380602442463,0.009426955993787909,0.3448426805155924,1
0.009426955993787909,0.3448426805155924,0.004737930321868146,0.17152627645367124,1
0.004737930321868146,0.17152627645367124,0.003222824936712029,0.11552474532479591,1
0.003222824936712029,0.11552474532479591,-0.0198462864134097,-0.7371588831847913,0
-0.0198462864134097,-0.7371588831847913,-0.01499876543180114,-0.5579841539487416,0
-0.01499876543180114,-0.5579841539487416,-0.01136857326786664,-0.42380449789040764,0
-0.01136857326786664,-0.42380449789040764,-0.01528036668726517,-0.5683927378190802,0
-0.01528036668726517,-0.5683927378190802,-0.024494091363910328,-0.9089516813402688,0
-0.024494091363910328,-0.9089516813402688,-0.041030729852977316,-1.5201811602830948,0
-0.041030729852977316,-1.5201811602830948,0.0053354756748954955,0.19361282899075952,1
0.0053354756748954955,0.19361282899075952,-0.025101569350658555,-0.9314053652346613,0
-0.025101569350658555,-0.9314053652346613,0.009009074040220525,0.32939687096321746,1
0.009009074040220525,0.32939687096321746,-0.03913625201704085,-1.4501572130767897,0
-0.03913625201704085,-1.4501572130767897,-0.021348202579463866,-0.7926729126049803,0
-0.021348202579463866,-0.7926729126049803,0.03103911379174676,1.1436741938494634,1
0.03103911379174676,1.1436741938494634,0.045537836115196025,1.6795779385529386,1
0.045537836115196025,1.6795779385529386,-0.015433215822480039,-0.5740423683250633,0
-0.015433215822480039,-0.5740423683250633,-0.020237733167896618,-0.751627591316561,0
-0.020237733167896618,-0.751627591316561,-0.008780894595796472,-0.3281583671821254,0
-0.008780894595796472,-0.3281583671821254,0.014681440657433065,0.5390596566680478,1
0.014681440657433065,0.5390596566680478,0.00785775295762338,0.28684158465899057,1
0.00785775295762338,0.28684158465899057,0.003971977373565803,0.1432150194956692,1
0.003971977373565803,0.1432150194956692,-0.010093075640316833,-0.3766593812576943,0
-0.010093075640316833,-0.3766593812576943,-0.005219140620834576,-0.19650833276443946,0
-0.005219140620834576,-0.19650833276443946,0.03623346159349355,1.335668383140629,1
0.03623346159349355,1.335668383140629,-0.01683344953871601,-0.6257979972177753,0
-0.01683344953871601,-0.6257979972177753,-0.02370282492463719,-0.8797047836892364,0
-0.02370282492463719,-0.8797047836892364,-0.05969014673797089,-2.2098730627536,0
-0.05969014673797089,-2.2098730627536,-0.04266543027571116,-1.5806031794422981,0
-0.04266543027571116,-1.5806031794422981,-0.058239009406740906,-2.1562359275263527,0
-0.058239009406740906,-2.1562359275263527,-0.05195975100253782,-1.9241411251222302,0
-0.05195975100253782,-1.9241411251222302,0.052908629122572284,1.9520181912846293,1
0.052908629122572284,1.9520181912846293,-0.006343150265554227,-0.23805412999057607,0
-0.006343150265554227,-0.23805412999057607,-0.006864107117178567,-0.25730980793144437,0
-0.006864107117178567,-0.25730980793144437,0.026086397372674576,0.960611216559218,1
0.026086397372674576,0.960611216559218,-0.03509693905558098,-1.3008555785062308,0
-0.03509693905558098,-1.3008555785062308,-0.1122624975471182,-4.153059437246786,0
-0.1122624975471182,-4.153059437246786,-0.3857688849179535,-14.262439693139566,0
-0.3857688849179535,-14.262439693139566,0.10109612077347342,3.7331308057264945,1
0.10109612077347342,3.7331308057264945,-0.06813467093171936,-2.5220007135018134,0
-0.06813467093171936,-2.5220007135018134,-0.1787253703200242,-6.609669172102199,0
-0.1787253703200242,-6.609669172102199,0.06837727552118902,2.5237724014542673,1
0.06837727552118902,2.5237724014542673,-0.11240953340578494,-4.158494196635051,0
-0.11240953340578494,-4.158494196635051,-0.006775344279477943,-0.25402894386266106,0
-0.006775344279477943,-0.25402894386266106,-0.03726726951580496,-1.3810756278961653,0
-0.03726726951580496,-1.3810756278961653,0.10998692327536523,4.061753855943608,1
0.10998692327536523,4.061753855943608,0.04904809677390831,1.8093246700181473,1
0.04904809677390831,1.8093246700181473,-0.010082138480261899,-0.3762551204615288,0
-0.010082138480261899,-0.3762551204615288,0.14174879389623407,5.235740433849287,1
0.14174879389623407,5.235740433849287,-0.002767660926514313,-0.10589640717938457,0
-0.002767660926514313,-0.10589640717938457,-0.0040393857663737565,-0.15290207352081484,0
-0.0040393857663737565,-0.15290207352081484,-0.09354090797206076,-3.4610694993576963,0
-0.09354090797206076,-3.4610694993576963,-0.028742481952094057,-1.0659812715606727,0
-0.028742481952094057,-1.0659812715606727,0.02651773595407168,0.9765544118180124,1
0.02651773595407168,0.9765544118180124,-0.03744055449495635,-1.3874806108426903,0
-0.03744055449495635,-1.3874806108426903,0.10159623830337876,3.7516162178261974,1
0.10159623830337876,3.7516162178261974,0.04067577434993884,1.4998657508957685,1
0.04067577434993884,1.4998657508957685,-0.011598694987227862,-0.4323102881519279,0
-0.011598694987227862,-0.4323102881519279,0.04706171719770212,1.7359038381997647,1
0.04706171719770212,1.7359038381997647,0.09149760495597833,3.378349159769196,1
0.09149760495597833,3.378349159769196,-0.010431816219040201,-0.38917995655882115,0
-0.010431816219040201,-0.38917995655882115,-0.034732778961269466,-1.2873954436157597,0
-0.034732778961269466,-1.2873954436157597,-0.024790824496513934,-0.919919571709662,0
-0.024790824496513934,-0.919919571709662,-0.05700520748962905,-2.1106319734087413,0
-0.05700520748962905,-2.1106319734087413,-0.0882655823550789,-3.266082197056001,0
-0.0882655823550789,-3.266082197056001,0.13599275514223574,5.022984947254646,1
0.13599275514223574,5.022984947254646,-0.016143032097253207,-0.6002786939278503,0
-0.016143032097253207,-0.6002786939278503,-0.016407817193858924,-0.6100657166493749,0
-0.016407817193858924,-0.6100657166493749,0.06338047877914235,2.3390801212763073,1
0.06338047877914235,2.3390801212763073,0.02449475014289069,0.9017805353681893,1
0.02449475014289069,0.9017805353681893,-0.01963983182676221,-0.7295278806986856,0
-0.01963983182676221,-0.7295278806986856,0.02685031117662853,0.9888471023867222,1
0.02685031117662853,0.9888471023867222,0.009830253969727462,0.3597494351051183,1
0.009830253969727462,0.3597494351051183,0.05913268645612961,2.1820726442144496,1
0.05913268645612961,2.1820726442144496,-0.0044104429401260956,-0.1666171391987993,0
-0.0044104429401260956,-0.1666171391987993,-0.06387919975877139,-2.364709409745196,0
-0.06387919975877139,-2.364709409745196,0.04753938491007327,1.7535594570931363,1
0.04753938491007327,1.7535594570931363,-0.014872618887742033,-0.5533215082455859,0
-0.014872618887742033,-0.5533215082455859,-0.004570670398493484,-0.17253948828776206,0
-0.004570670398493484,-0.17253948828776206,0.05248153125776542,1.9362317419687005,1
0.05248153125776542,1.9362317419687005,0.06297187011585799,2.3239770723394906,1
0.06297187011585799,2.3239770723394906,-0.03179259956806113,-1.1787201333525938,0
-0.03179259956806113,-1.1787201333525938,-0.0024105863466912063,-0.0926981680382615,0
-0.0024105863466912063,-0.0926981680382615,-0.03104825430888744,-1.1512075427363635,0
-0.03104825430888744,-1.1512075427363635,-0.01336693618767702,-0.4976682596834659,0
-0.01336693618767702,-0.4976682596834659,0.002519928460096264,0.08954419024181165,1
0.002519928460096264,0.08954419024181165,0.09515760355005248,3.5136305251486504,1
0.09515760355005248,3.5136305251486504,-0.03453299114611576,-1.280010859243533,0
-0.03453299114611576,-1.280010859243533,0.03852962600001013,1.4205395239525958,1
0.03852962600001013,1.4205395239525958,-0.006287566245466981,-0.23599962588697987,0
-0.006287566245466981,-0.23599962588697987,-0.0007648359093846437,-0.031867716738870865,0
-0.0007648359093846437,-0.031867716738870865,-0.016197812174272876,-0.6023034825785375,0
-0.016197812174272876,-0.6023034825785375,0.024768491628687245,0.9118986053640401,1
0.024768491628687245,0.9118986053640401,-0.02088799070201729,-0.7756624986541072,0
-0.02088799070201729,-0.7756624986541072,-0.013059305857691916,-0.48629758562367315,0
-0.013059305857691916,-0.48629758562367315,0.01634595903159569,0.600583810999826,1
0.01634595903159569,0.600583810999826,0.056289476780518426,2.076981541830009,1
0.056289476780518426,2.076981541830009,0.010165227430863483,0.37213076969408027,1
0.010165227430863483,0.37213076969408027,-0.003981138177064834,-0.15074911820970327,0
-0.003981138177064834,-0.15074911820970327,0.07272117563778853,2.6843322278424537,1
0.07272117563778853,2.6843322278424537,0.04612906739306184,1.7014311093859071,1
0.04612906739306184,1.7014311093859071,-0.043435012153286295,-1.6090485693772045,0
-0.043435012153286295,-1.6090485693772045,-0.06674936095732302,-2.4707966979829163,0
-0.06674936095732302,-2.4707966979829163,-0.08396012105845775,-3.10694315155518,0
-0.08396012105845775,-3.10694315155518,0.027383086797135102,1.0085396272690295,1
0.027383086797135102,1.0085396272690295,-0.006871579139242641,-0.2575859898263254,0
-0.006871579139242641,-0.2575859898263254,0.04475982491737664,1.6508209829377312,1
0.04475982491737664,1.6508209829377312,-0.039601718891156136,-1.467361862928616,0
-0.039601718891156136,-1.467361862928616,0.008538155722342181,0.311990724106242,1
0.008538155722342181,0.311990724106242,-0.011973935152420135,-0.4461799661279283,0
-0.011973935152420135,-0.4461799661279283,0.002291806481675551,0.08111231467667278,1
0.002291806481675551,0.08111231467667278,0.00076279402201464,0.024596748370164196,1
0.00076279402201464,0.024596748370164196,-0.06925157242419831,-2.5632837782389255,0
-0.06925157242419831,-2.5632837782389255,0.0357180579924524,1.3166179652024301,1
0.0357180579924524,1.3166179652024301,-0.039607172365025534,-1.4675634349708315,0
-0.039607172365025534,-1.4675634349708315,0.01808815103384504,0.6649789485277621,1
0.01808815103384504,0.6649789485277621,0.02013822033764148,0.740753888711925,1
0.02013822033764148,0.740753888711925,-0.015917551224811116,-0.5919444392807844,0
-0.015917551224811116,-0.5919444392807844,0.01315021620661035,0.48246233044363634,1
0.01315021620661035,0.48246233044363634,-0.002179741475726367,-0.08416564854890163,0
-0.002179741475726367,-0.08416564854890163,-0.0466994966696562,-1.7297108896714348,0
-0.0466994966696562,-1.7297108896714348,-0.014024342656432612,-0.5219674069144334,0
-0.014024342656432612,-0.5219674069144334,-0.06757851811203382,-2.5014441174068014,0
-0.06757851811203382,-2.5014441174068014,0.023624931027489336,0.8696301630278384,1
0.023624931027489336,0.8696301630278384,-0.009961360766271053,-0.37179091818490906,0
-0.009961360766271053,-0.37179091818490906,0.05053656938855049,1.864341797064246,1
0.05053656938855049,1.864341797064246,0.0037998844378643215,0.13685409702112264,1
0.0037998844378643215,0.13685409702112264,0.007556723931305531,0.27571490888237654,1
0.007556723931305531,0.27571490888237654,-0.013897883214784341,-0.5172931958480685,0
-0.013897883214784341,-0.5172931958480685,0.011385341455199397,0.4172287900589043,1
0.011385341455199397,0.4172287900589043,0.05545647155490095,2.0461918894863693,1
0.05545647155490095,2.0461918894863693,-0.004572109138737597,-0.17259266720017072,0
-0.004572109138737597,-0.17259266720017072,-0.027061429052211584,-1.0038459658424146,0
-0.027061429052211584,-1.0038459658424146,0.003881963044162491,0.13988789762051,1
0.003881963044162491,0.13988789762051,-0.00983613526541211,-0.36716231620567547,0
-0.00983613526541211,-0.36716231620567547,-0.0269243205423692,-0.9987781424703915,0
-0.0269243205423692,-0.9987781424703915,0.02568794345427149,0.9458835086825982,1
0.02568794345427149,0.9458835086825982,-0.04039249417735312,-1.4965906065129064,0
-0.04039249417735312,-1.4965906065129064,0.005779672348892389,0.21003128681547165,1
0.005779672348892389,0.21003128681547165,-0.010298300746225595,-0.38424493950966504,0
-0.010298300746225595,-0.38424493950966504,0.04408602112719443,1.6259157556840145,1
0.04408602112719443,1.6259157556840145,0.046172921425951155,1.7030520481087434,1
0.046172921425951155,1.7030520481087434,0.002754810685298344,0.09822593896711133,1
0.002754810685298344,0.09822593896711133,-0.041731190572695503,-1.5460716845886437,0
-0.041731190572695503,-1.5460716845886437,0.033245687034786364,1.225233853902743,1
0.033245687034786364,1.225233853902743,-0.020825761559706647,-0.7733623766399058,0
-0.020825761559706647,-0.7733623766399058,-0.006699812331288742,-0.2512371217299014,0
-0.006699812331288742,-0.2512371217299014,-0.03461130915458497,-1.282905660114951,0
-0.03461130915458497,-1.282905660114951,0.01153179893748631,0.4226421714208233,1
0.01153179893748631,0.4226421714208233,-0.03026366341520835,-1.1222073875086964,0
-0.03026366341520835,-1.1222073875086964,-0.004090918454916379,-0.1548068317573364,0
-0.004090918454916379,-0.1548068317573364,-0.01609425498549017,-0.5984757876947021,0
-0.01609425498549017,-0.5984757876947021,-0.03366725625320622,-1.2480114484899163,0
-0.03366725625320622,-1.2480114484899163,-0.016230762108752805,-0.6035213825342438,0
-0.016230762108752805,-0.6035213825342438,0.02143270431843429,0.7886007815132,1
0.02143270431843429,0.7886007815132,0.0011272515098857798,0.03806787556179797,1
0.0011272515098857798,0.03806787556179797,-0.025560559846536112,-0.9483706343140108,0
-0.025560559846536112,-0.9483706343140108,0.03832239616529605,1.412879866642107,1
