inp_z_score,out_z_score
-0.5527343930084304,0.4995185901830735
0.4995185901830735,-0.6474426200056705
-0.6474426200056705,0.7393174175544595
0.7393174175544595,-0.39381615756758903
-0.39381615756758903,0.3254459647305896
0.3254459647305896,0.4505220471941154
0.4505220471941154,0.3464161605941118
0.3464161605941118,0.38680426351891634
0.38680426351891634,0.42799303822690826
0.42799303822690826,-0.6415673061008884
-0.6415673061008884,-0.4970115070885195
-0.4970115070885195,-0.06004754798872294
-0.06004754798872294,-0.6832416640596198
-0.6832416640596198,-0.4049529072807773
-0.4049529072807773,0.06485432696574953
0.06485432696574953,-0.2841298093365949
-0.2841298093365949,0.5142394435786641
0.5142394435786641,0.12391373949300673
0.12391373949300673,-0.49639582059276594
-0.49639582059276594,-0.04171087747485669
-0.04171087747485669,0.3014874680688261
0.3014874680688261,0.1391239987088919
0.1391239987088919,0.3339374380991132
0.3339374380991132,-1.071498031302801
-1.071498031302801,-0.32292579500211055
-0.32292579500211055,0.05527335369147436
0.05527335369147436,0.5818436612315336
0.5818436612315336,0.8736684777457836
0.8736684777457836,-0.5281810952715078
-0.5281810952715078,-0.02785315255905201
-0.02785315255905201,-0.17902135104023242
-0.17902135104023242,-0.1789283771435388
-0.1789283771435388,-0.04587455835916978
-0.04587455835916978,-0.039219798351447066
-0.039219798351447066,-0.35467684812412986
-0.35467684812412986,0.22553244543477605
0.22553244543477605,0.04285861895011785
0.04285861895011785,0.2968447851861714
0.2968447851861714,-0.8435249444935911
-0.8435249444935911,0.8766828898574525
0.8766828898574525,-0.17257604964290685
-0.17257604964290685,-0.0021129737151667134
-0.0021129737151667134,-0.282365319299399
-0.282365319299399,-0.4615426641351218
-0.4615426641351218,-1.1426859634729025
-1.1426859634729025,0.40233731851970933
0.40233731851970933,-0.1917369854977591
-0.1917369854977591,-0.17946771440970624
-0.17946771440970624,-0.8964627791357086
-0.8964627791357086,-0.08543872549813297
-0.08543872549813297,-0.9126471974781865
-0.9126471974781865,0.2532264283828306
0.2532264283828306,-0.8618416403735409
-0.8618416403735409,0.05894292089065408
0.05894292089065408,0.17364656221815367
0.17364656221815367,-0.3130295206677327
-0.3130295206677327,0.2573725065978405
0.2573725065978405,-0.5943996085015074
-0.5943996085015074,1.0744895394335763
1.0744895394335763,-0.014797114843345555
-0.014797114843345555,-0.656910192379207
-0.656910192379207,-0.3118053695739381
-0.3118053695739381,0.683359843457422
0.683359843457422,0.07977665346212354
0.07977665346212354,0.6458034129219947
0.6458034129219947,0.08923572714058815
0.08923572714058815,0.218847271941132
0.218847271941132,-0.716550805058634
-0.716550805058634,-0.5750354708359949
-0.5750354708359949,-0.10387671862776754
-0.10387671862776754,0.806245702265862
0.806245702265862,-0.19226222691477457
-0.19226222691477457,-0.14472093133414618
-0.14472093133414618,-0.5320301983222571
-0.5320301983222571,-0.38200978030727534
-0.38200978030727534,-0.6135351554142695
-0.6135351554142695,-0.35857153975754136
-0.35857153975754136,-0.04542683111691867
-0.04542683111691867,0.6522262918193181
0.6522262918193181,0.4708861408979161
0.4708861408979161,0.13586801230939455
0.13586801230939455,-0.175304995610205
-0.175304995610205,-0.19940411121814988
-0.19940411121814988,0.4311068482957369
0.4311068482957369,0.550843151395512
0.550843151395512,0.5611820324912524
0.5611820324912524,-0.369580138666992
-0.369580138666992,-0.9572175805028487
-0.9572175805028487,0.3885344089067734
0.3885344089067734,0.3966708551135358
0.3966708551135358,1.071645650131167
1.071645650131167,-0.8765177331856301
-0.8765177331856301,-0.30475364180181846
-0.30475364180181846,-0.22817490152749426
-0.22817490152749426,0.011885882382531972
0.011885882382531972,0.1203199400203982
0.1203199400203982,-0.04125420542644602
-0.04125420542644602,0.17814308593782835
0.17814308593782835,0.4858377556621144
0.4858377556621144,0.13096183755837368
0.13096183755837368,-0.2133053168512145
-0.2133053168512145,-0.2636035309432682
-0.2636035309432682,0.5072049310860466
0.5072049310860466,0.28196559531259346
0.28196559531259346,-0.09463717978498462
-0.09463717978498462,0.5346526255710381
0.5346526255710381,0.655763077279553
0.655763077279553,0.04193220117922527
0.04193220117922527,0.6964200364751703
0.6964200364751703,0.3214086427189534
0.3214086427189534,-0.4998333066499034
-0.4998333066499034,-0.10580351545320092
-0.10580351545320092,0.29183073959666933
0.29183073959666933,-0.03716237109986793
-0.03716237109986793,-0.08410388962004609
-0.08410388962004609,0.1561251355942138
0.1561251355942138,0.21648557234617255
0.21648557234617255,0.4692462761794121
0.4692462761794121,0.07777657360901673
0.07777657360901673,0.11634258016208415
0.11634258016208415,-0.43678590025856473
-0.43678590025856473,-0.537878539685708
-0.537878539685708,0.7107673025632056
0.7107673025632056,-0.3646988315934672
-0.3646988315934672,-0.2642876592057197
-0.2642876592057197,-0.5032121207210344
-0.5032121207210344,0.0074952949405866914
0.0074952949405866914,-0.6733423494466726
-0.6733423494466726,0.8028865979881615
0.8028865979881615,0.4216449447160407
0.4216449447160407,0.46896342323312373
0.46896342323312373,-0.18945895787969266
-0.18945895787969266,-3.443096074302138
-3.443096074302138,0.2309722554438835
0.2309722554438835,-0.7071590973630634
-0.7071590973630634,-1.5057177957391323
-1.5057177957391323,-0.15646559396251009
-0.15646559396251009,-1.059262674999938
-1.059262674999938,-0.5737712909004546
-0.5737712909004546,-0.14282846909678046
-0.14282846909678046,1.9217107821927975
1.9217107821927975,0.42750627509009237
0.42750627509009237,-0.14465939362435298
-0.14465939362435298,-0.09713360536617445
-0.09713360536617445,-0.15682190231673326
-0.15682190231673326,-0.7203109815503532
-0.7203109815503532,-0.20782424789967968
-0.20782424789967968,-0.4213526571099162
-0.4213526571099162,-0.7827200001388345
-0.7827200001388345,0.9066672476060662
0.9066672476060662,-0.8166689896938555
-0.8166689896938555,-0.27080945237831444
-0.27080945237831444,-0.3486878872046777
-0.3486878872046777,0.6312656858162605
0.6312656858162605,-1.0174945016013954
-1.0174945016013954,0.3584852181289673
0.3584852181289673,-1.1267408666645278
-1.1267408666645278,-0.2659474909115091
-0.2659474909115091,0.08169082335992048
0.08169082335992048,-0.7023366171586168
-0.7023366171586168,0.036466583798621555
0.036466583798621555,-0.6576379192989913
-0.6576379192989913,-0.12038254123985749
-0.12038254123985749,0.5884681742377132
0.5884681742377132,-0.06857069502641538
-0.06857069502641538,-1.070336879751593
-1.070336879751593,0.591528631300003
0.591528631300003,0.10797601671751132
0.10797601671751132,0.8869442640170673
0.8869442640170673,0.6468793063578282
0.6468793063578282,0.8926656227981257
0.8926656227981257,0.22389257245591454
0.22389257245591454,-0.30430811272011116
-0.30430811272011116,-2.322009923982965
-2.322009923982965,-1.1341948380672466
-1.1341948380672466,-0.12168067116731045
-0.12168067116731045,-0.37405393843468854
-0.37405393843468854,0.15002057767999805
0.15002057767999805,-0.09325351032478488
-0.09325351032478488,-0.41542767010419823
-0.41542767010419823,-1.2744703393982824
-1.2744703393982824,-1.3095701324142344
-1.3095701324142344,0.12617751695536467
0.12617751695536467,-0.8828554904476784
-0.8828554904476784,1.0782700148725846
1.0782700148725846,0.07340717514793753
0.07340717514793753,1.6539511956033026
1.6539511956033026,0.6766999201115034
0.6766999201115034,0.10275953619220914
0.10275953619220914,-0.31471261505526377
-0.31471261505526377,0.02889372995983013
0.02889372995983013,0.3459184400561119
0.3459184400561119,0.11415369915058106
0.11415369915058106,0.9951820620506304
0.9951820620506304,0.581736674651399
0.581736674651399,0.35599509954318304
0.35599509954318304,0.3966496747397403
0.3966496747397403,0.5504655995866138
0.5504655995866138,0.25964068424841813
0.25964068424841813,0.07639354560308934
0.07639354560308934,-0.023809307369347204
-0.023809307369347204,0.5825959679088122
0.5825959679088122,-0.0683390126594622
-0.0683390126594622,0.11485872476943465
0.11485872476943465,-0.29259530365903247
-0.29259530365903247,0.07583592899173347
0.07583592899173347,0.09795083589881803
0.09795083589881803,0.07238441691991933
0.07238441691991933,-1.0778858964220897
-1.0778858964220897,0.009097781323173664
0.009097781323173664,-0.01912624788277963
-0.01912624788277963,-0.30911595293964494
-0.30911595293964494,-0.006108768619732394
-0.006108768619732394,-0.11048738197667274
-0.11048738197667274,-0.6704434083697409
-0.6704434083697409,0.5138636523267015
0.5138636523267015,-0.5874930442665445
-0.5874930442665445,1.4584234445101782
1.4584234445101782,-0.24291577439551923
-0.24291577439551923,-0.06489330268902496
-0.06489330268902496,0.6331211381971492
0.6331211381971492,-0.5257684132750822
-0.5257684132750822,0.4818415354696628
0.4818415354696628,0.6430352122322666
0.6430352122322666,-0.1655187942580381
-0.1655187942580381,0.693232007192459
0.693232007192459,-0.4445970418271021
-0.4445970418271021,-0.08231274050663327
-0.08231274050663327,0.04563796916063194
0.04563796916063194,-0.05048404010245055
-0.05048404010245055,0.34723083218442036
0.34723083218442036,-0.0475493440123254
-0.0475493440123254,-0.040826570744758796
-0.040826570744758796,-0.9366230157456568
-0.9366230157456568,-0.2012108700577102
-0.2012108700577102,-0.6708377177521481
-0.6708377177521481,-0.16706882142318405
-0.16706882142318405,-0.627336634111626
-0.627336634111626,-0.20584049404217056
-0.20584049404217056,0.19310249107204988
0.19310249107204988,-0.24967590375642698
-0.24967590375642698,-0.32391894601782
-0.32391894601782,0.1545526191803189
0.1545526191803189,0.48616367673655847
0.48616367673655847,0.058577685483013044
0.058577685483013044,0.42429362378367735
0.42429362378367735,-0.2660360054395302
-0.2660360054395302,-0.3936173083487741
-0.3936173083487741,-0.06293839013418659
-0.06293839013418659,-0.10971252675442726
-0.10971252675442726,0.353654217514233
0.353654217514233,0.11488747319371398
0.11488747319371398,-0.11893102432043332
-0.11893102432043332,0.619294977828242
0.619294977828242,0.2780847987031756
0.2780847987031756,0.09758566495492171
0.09758566495492171,0.08360709136054682
0.08360709136054682,0.2257334204646757
0.2257334204646757,-0.3676870676384724
-0.3676870676384724,0.07612400184806263
0.07612400184806263,-0.021349321407727277
-0.021349321407727277,1.7743973927881733
1.7743973927881733,-0.5736594070724378
-0.5736594070724378,-0.34077000207473956
-0.34077000207473956,-0.1571450175105135
-0.1571450175105135,-0.051164238841624764
-0.051164238841624764,0.5537103023412348
0.5537103023412348,-0.2558643804942405
-0.2558643804942405,0.2536412552211366
0.2536412552211366,0.2518474702181548
0.2518474702181548,-0.2081790829993456
-0.2081790829993456,0.3765015143878484
0.3765015143878484,0.07832820959597465
0.07832820959597465,-0.35611892489535507
-0.35611892489535507,-0.3882283015839992
-0.3882283015839992,0.7090247617310175
0.7090247617310175,0.08157511219766779
0.08157511219766779,-0.3684053583248447
-0.3684053583248447,0.27772436641879406
0.27772436641879406,-0.007271397091094508
-0.007271397091094508,-0.14684925987532838
-0.14684925987532838,0.002414325808629269
0.002414325808629269,0.6194500364703383
0.6194500364703383,-0.3231118905539218
-0.3231118905539218,-0.4491385723241624
-0.4491385723241624,0.24661038240451835
0.24661038240451835,0.15648384491254982
0.15648384491254982,0.6501210399111128
0.6501210399111128,-0.7679360910798442
-0.7679360910798442,0.4523428025705021
0.4523428025705021,-0.47856476062699366
-0.47856476062699366,0.172324708005059
0.172324708005059,1.0448427071856232
1.0448427071856232,0.3547383751146368
0.3547383751146368,-0.16282536528662905
-0.16282536528662905,0.24192131774606246
0.24192131774606246,0.295126438054757
0.295126438054757,-0.0007542881576949175
-0.0007542881576949175,-0.06303816567490358
-0.06303816567490358,0.4134942807796218
0.4134942807796218,0.63143144846789
0.63143144846789,1.0478965446256832
1.0478965446256832,-0.7159374211221889
-0.7159374211221889,-0.011440327707286547
-0.011440327707286547,0.8851662971288767
0.8851662971288767,0.17762972668855911
0.17762972668855911,-0.052328737501125884
-0.052328737501125884,0.21556783338010285
0.21556783338010285,0.010708216525213051
0.010708216525213051,0.8150682674387629
0.8150682674387629,-0.38646893626735457
-0.38646893626735457,0.6489940275515254
0.6489940275515254,-0.18225655573635818
-0.18225655573635818,0.33915315284401765
0.33915315284401765,-0.29003763351228523
-0.29003763351228523,-0.012908633133419695
-0.012908633133419695,0.5390031447712146
0.5390031447712146,0.07621203313612937
0.07621203313612937,0.16335741842172183
0.16335741842172183,-0.09684660497847042
-0.09684660497847042,0.32183022391580796
0.32183022391580796,0.601861429119663
0.601861429119663,-0.3185170907727418
-0.3185170907727418,0.19057690959409584
0.19057690959409584,-0.20903713667043158
-0.20903713667043158,-2.4883520227413665
-2.4883520227413665,0.8463324216366517
0.8463324216366517,-0.0893735975085132
-0.0893735975085132,0.17851093917385044
0.17851093917385044,-0.4210749062321291
-0.4210749062321291,0.5175381783519587
0.5175381783519587,-0.6319234386271261
-0.6319234386271261,-0.03648639569684927
-0.03648639569684927,-0.23093672946374388
-0.23093672946374388,-0.10175941994515773
-0.10175941994515773,0.015784651346127682
0.015784651346127682,-0.45177744360791683
-0.45177744360791683,-0.6608712557064149
-0.6608712557064149,0.029636017938205257
0.029636017938205257,-0.09963772951252542
-0.09963772951252542,0.09204308876682292
0.09204308876682292,0.07413125471394404
0.07413125471394404,0.2828399565838075
0.2828399565838075,-0.21082830749049422
-0.21082830749049422,-0.2547750055728356
-0.2547750055728356,-0.2707905508817961
-0.2707905508817961,-0.20277091604609915
-0.20277091604609915,0.3635818896974282
0.3635818896974282,-0.13572574209647742
-0.13572574209647742,-0.04964747065079772
-0.04964747065079772,-0.41459878759855123
-0.41459878759855123,0.2964395025347093
0.2964395025347093,-0.9590626798737291
-0.9590626798737291,0.061189419453777275
0.061189419453777275,-0.13534984897228378
-0.13534984897228378,-0.08761748638134759
-0.08761748638134759,-0.08269645195199089
-0.08269645195199089,-0.4152904409852087
-0.4152904409852087,1.977987652291437
1.977987652291437,-0.14309354486996423
-0.14309354486996423,0.11130204430860129
0.11130204430860129,-0.5086016846223677
-0.5086016846223677,-0.1606481081290429
-0.1606481081290429,-0.43695149833878344
-0.43695149833878344,0.15420212856932897
0.15420212856932897,0.8941409381915537
0.8941409381915537,-0.529660416210616
-0.529660416210616,-0.36305307349347526
-0.36305307349347526,-0.05769929874867503
-0.05769929874867503,0.6654134598518407
0.6654134598518407,-1.1823424232277533
-1.1823424232277533,-0.5260628185794582
-0.5260628185794582,-0.03847233164011965
-0.03847233164011965,-0.05264579478570587
-0.05264579478570587,0.022403475571985302
0.022403475571985302,0.09876816315993174
0.09876816315993174,-0.41491427108938506
-0.41491427108938506,-0.12297188097283972
-0.12297188097283972,-0.012235691597695756
-0.012235691597695756,1.2129581066302833
1.2129581066302833,-0.14362048344855752
-0.14362048344855752,0.4368802030080803
0.4368802030080803,0.7124454790631153
0.7124454790631153,-1.0314524835565884
-1.0314524835565884,0.8149024762540228
0.8149024762540228,-0.16838766032154984
-0.16838766032154984,-0.4946138098207664
-0.4946138098207664,0.9107162353573481
0.9107162353573481,-0.5732617098839826
-0.5732617098839826,-1.1628382291984984
-1.1628382291984984,-0.6880752724013909
-0.6880752724013909,-0.11757044628733547
-0.11757044628733547,-0.06730020239277874
-0.06730020239277874,-0.6188374238034804
-0.6188374238034804,-0.4234048801440569
-0.4234048801440569,0.1797488580354246
0.1797488580354246,0.05074873655331401
0.05074873655331401,0.07625341473662653
0.07625341473662653,-0.11703370454157347
-0.11703370454157347,-0.30476044263845525
-0.30476044263845525,0.11084863304063101
0.11084863304063101,-0.019465124915735564
-0.019465124915735564,0.4290093716147852
0.4290093716147852,-0.3728783199103784
-0.3728783199103784,-0.6809490178509655
-0.6809490178509655,-0.0006207010000166901
-0.0006207010000166901,-0.05313387510632155
-0.05313387510632155,-0.16555233372796604
-0.16555233372796604,-0.20994859219901554
-0.20994859219901554,0.6584392125744186
0.6584392125744186,0.4855258958976694
0.4855258958976694,0.40001386586740434
0.40001386586740434,0.5195808410395468
0.5195808410395468,0.2515526161794963
0.2515526161794963,-0.6736812981202406
-0.6736812981202406,1.5575754364108103
1.5575754364108103,-0.08560071342287136
-0.08560071342287136,-0.985058288066778
-0.985058288066778,0.1520080733534582
0.1520080733534582,0.4681248713355422
0.4681248713355422,0.380702070664208
0.380702070664208,-0.7079439692966649
-0.7079439692966649,-0.6109106019582802
-0.6109106019582802,-1.0940487009359678
-1.0940487009359678,0.3813647894179707
0.3813647894179707,0.1185916608974641
0.1185916608974641,-0.3098467579144589
-0.3098467579144589,-0.4826950136545799
-0.4826950136545799,-0.6358868552390036
-0.6358868552390036,0.6152859151216079
0.6152859151216079,0.34597083466740974
0.34597083466740974,-0.06839642648374232
-0.06839642648374232,-0.09802777923919795
-0.09802777923919795,0.4489372459505129
0.4489372459505129,-0.3790525251684256
-0.3790525251684256,-0.20386226959174097
-0.20386226959174097,0.310150560731041
0.310150560731041,-0.4076228586829008
-0.4076228586829008,0.3140522897092789
0.3140522897092789,0.4525784600564199
0.4525784600564199,-0.6324144167403386
-0.6324144167403386,-0.6589797075763858
-0.6589797075763858,0.37415340420398796
0.37415340420398796,-5.6934987397377235
-5.6934987397377235,-0.22039717392741048
-0.22039717392741048,-0.0864140690309727
-0.0864140690309727,-0.5117984724320698
-0.5117984724320698,0.4162087512683092
0.4162087512683092,0.5737721393937166
0.5737721393937166,0.37423552444944475
0.37423552444944475,-0.3291776291473558
-0.3291776291473558,-0.4927269634384795
-0.4927269634384795,0.1822837514698333
0.1822837514698333,-0.15170049931074375
-0.15170049931074375,0.45986471920013183
0.45986471920013183,-0.7265899888205064
-0.7265899888205064,0.803165324680694
0.803165324680694,0.8393626024176827
0.8393626024176827,-0.24495156500376072
-0.24495156500376072,-0.014866311244678979
-0.014866311244678979,0.3167929977129569
0.3167929977129569,0.2164517077304996
0.2164517077304996,-0.23127293225682868
-0.23127293225682868,0.6912026106413949
0.6912026106413949,-0.44062564854645886
-0.44062564854645886,0.03330042974389346
0.03330042974389346,-0.09955222204872925
-0.09955222204872925,0.4285143963128583
0.4285143963128583,-0.5859964422797175
-0.5859964422797175,-0.131068841459817
-0.131068841459817,-0.292931685304377
-0.292931685304377,0.29805022512960283
0.29805022512960283,-0.21760511397333265
-0.21760511397333265,-0.8574743448077901
-0.8574743448077901,0.23591646923749204
0.23591646923749204,0.09368901971814031
0.09368901971814031,0.5658018517493348
0.5658018517493348,0.14317627957391954
0.14317627957391954,-0.11368507084480603
-0.11368507084480603,0.500659261137192
0.500659261137192,-0.678318310997557
-0.678318310997557,-0.05011982486498154
-0.05011982486498154,-0.6462082623033658
-0.6462082623033658,0.6102017456600153
0.6102017456600153,-0.19189909763971197
-0.19189909763971197,0.3488727655534418
0.3488727655534418,0.4320037621000143
0.4320037621000143,-0.2705887182279137
-0.2705887182279137,-0.23824008308603178
-0.23824008308603178,-1.827700167702545
-1.827700167702545,0.11666239309003175
0.11666239309003175,-0.31873500656777487
-0.31873500656777487,0.08019230119538132
0.08019230119538132,0.15909350186273857
0.15909350186273857,-0.9727091714609825
-0.9727091714609825,0.5368333397143303
0.5368333397143303,-0.4021751430608356
-0.4021751430608356,-0.7649982491591276
-0.7649982491591276,1.138456327103173
1.138456327103173,-0.266782772201124
-0.266782772201124,0.8712517922176447
0.8712517922176447,-0.22725909066719333
-0.22725909066719333,-0.2202588534847687
-0.2202588534847687,0.8703623527676183
0.8703623527676183,-0.6947332468557185
-0.6947332468557185,-0.31838591051506077
-0.31838591051506077,1.0490117034703486
1.0490117034703486,-0.0807981826361547
-0.0807981826361547,-0.06221707835012952
-0.06221707835012952,0.4816392004670021
0.4816392004670021,-0.967321206086208
-0.967321206086208,-0.018257162557261
-0.018257162557261,0.440161778718354
0.440161778718354,0.9445993922158917
0.9445993922158917,0.8535479794904212
0.8535479794904212,0.8777466925721183
0.8777466925721183,0.39414391689796857
0.39414391689796857,-1.0358154519526226
-1.0358154519526226,0.5382226948250108
0.5382226948250108,0.2738412519543778
0.2738412519543778,0.43985818666405274
0.43985818666405274,-1.0693711924897693
-1.0693711924897693,0.4677972878586991
0.4677972878586991,-0.07765058676627329
-0.07765058676627329,-0.25405787836497135
-0.25405787836497135,-0.5540962869279926
-0.5540962869279926,0.09980035192266529
0.09980035192266529,-0.10224552726705848
-0.10224552726705848,-0.35637389718333584
-0.35637389718333584,-0.059490009981691905
-0.059490009981691905,-0.13033988152636472
-0.13033988152636472,0.3627682051929012
0.3627682051929012,-0.446463565447475
-0.446463565447475,0.31894838607138504
0.31894838607138504,0.2725230865019911
0.2725230865019911,-0.0345238501910107
-0.0345238501910107,0.01052168749709514
0.01052168749709514,-0.0549838137570309
-0.0549838137570309,0.2740205966145476
0.2740205966145476,-0.9781701600106277
-0.9781701600106277,0.2842135064166793
0.2842135064166793,-0.2818500862656267
-0.2818500862656267,-0.14914230909461518
-0.14914230909461518,-0.2998414931867221
-0.2998414931867221,-0.47227590168771283
-0.47227590168771283,-0.027300245251025854
-0.027300245251025854,3.9048362508473944
3.9048362508473944,-3.439916668150931
-3.439916668150931,-1.2345278479819812
-1.2345278479819812,0.4566737351508248
0.4566737351508248,-0.6311723001823262
-0.6311723001823262,0.9833446221077503
0.9833446221077503,-0.21021498990769322
-0.21021498990769322,0.8011544272707019
0.8011544272707019,0.6685911459325412
0.6685911459325412,0.2271844101556365
0.2271844101556365,-0.5622511283011202
-0.5622511283011202,0.41211952970375987
0.41211952970375987,-0.8681953684285397
-0.8681953684285397,0.19190513141912846
0.19190513141912846,0.1575639451036188
0.1575639451036188,0.405814625235777
0.405814625235777,-0.5780058766537055
-0.5780058766537055,-0.06704312723534538
-0.06704312723534538,0.4369046594261613
0.4369046594261613,-0.09823863940251719
-0.09823863940251719,0.6539748730996916
0.6539748730996916,-0.2154708045775893
-0.2154708045775893,0.9988882408433541
0.9988882408433541,-0.46312796803243933
-0.46312796803243933,0.24873328549923854
0.24873328549923854,-0.2802583659457535
-0.2802583659457535,0.0777359899051559
0.0777359899051559,0.06233255612518304
0.06233255612518304,-0.27236692646549354
-0.27236692646549354,0.18781579576523297
0.18781579576523297,0.3654765334278476
0.3654765334278476,-0.07256794188749593
-0.07256794188749593,0.7613475226065485
0.7613475226065485,1.558284121939721
1.558284121939721,-0.19736373957488013
-0.19736373957488013,0.41803305601138324
0.41803305601138324,-0.49274339259614985
-0.49274339259614985,-0.3222437251689908
-0.3222437251689908,-0.054501715101891
-0.054501715101891,0.04003867568247375
0.04003867568247375,0.3192440717621282
0.3192440717621282,0.006669149246099065
0.006669149246099065,-1.4779295548378668
-1.4779295548378668,-0.4235606853408327
-0.4235606853408327,-0.24808167605335674
-0.24808167605335674,0.056277731511241824
0.056277731511241824,0.06937808459837064
0.06937808459837064,0.15856173262277132
0.15856173262277132,-0.16497753543275007
-0.16497753543275007,-0.061702407238428146
-0.061702407238428146,-0.376774862682537
-0.376774862682537,0.3269454019545996
0.3269454019545996,-0.954547022271211
-0.954547022271211,0.17892777856916903
0.17892777856916903,-0.04793442646971733
-0.04793442646971733,-0.3008907268637132
-0.3008907268637132,0.4014361853682099
0.4014361853682099,-0.47762645673361
-0.47762645673361,-0.15993466705363274
-0.15993466705363274,1.4241598701342568
1.4241598701342568,0.7061906776845629
0.7061906776845629,-1.7688811431059885
-1.7688811431059885,0.4066589080354143
0.4066589080354143,-0.43517883182399036
-0.43517883182399036,0.012583837005257127
0.012583837005257127,0.8069229509613779
0.8069229509613779,0.11325093736745026
0.11325093736745026,0.8800981741216851
0.8800981741216851,0.11479642341121861
0.11479642341121861,0.034378898090999796
0.034378898090999796,-0.06954055821427306
-0.06954055821427306,-0.6520583664907709
-0.6520583664907709,0.42291668180246833
0.42291668180246833,0.12428056199662317
0.12428056199662317,-0.11586587056220178
-0.11586587056220178,-0.12113547143521526
-0.12113547143521526,-0.11702814494994516
-0.11702814494994516,0.35271425239541143
0.35271425239541143,-0.23869035873534547
-0.23869035873534547,-0.39666321996542386
-0.39666321996542386,-0.024604726329761496
-0.024604726329761496,0.18663676872446835
0.18663676872446835,0.06788742322542121
0.06788742322542121,0.47335556320595906
0.47335556320595906,0.11761016855170756
0.11761016855170756,0.041303585132800594
0.041303585132800594,0.08362597503943295
0.08362597503943295,0.0238149341973488
0.0238149341973488,0.2767231617485476
0.2767231617485476,-0.14796839375996518
-0.14796839375996518,0.030215239547719222
0.030215239547719222,0.11616301969158907
0.11616301969158907,-0.024032126659056907
-0.024032126659056907,-4.910521571885937
-4.910521571885937,-0.31786251658262804
-0.31786251658262804,-0.7050442655458318
-0.7050442655458318,0.6719100456912014
0.6719100456912014,-0.09936558198593146
-0.09936558198593146,-0.1644663496466278
-0.1644663496466278,-0.005216799131396293
-0.005216799131396293,-0.5011314661656446
-0.5011314661656446,-0.1887330402331352
-0.1887330402331352,0.7461416667321246
0.7461416667321246,-0.767358209416867
-0.767358209416867,0.05292349638005948
0.05292349638005948,-0.005797631797323711
-0.005797631797323711,-0.8990200796574278
-0.8990200796574278,0.16762040295111635
0.16762040295111635,-0.31421726128069155
-0.31421726128069155,-0.5892441234162429
-0.5892441234162429,0.7926732995342567
0.7926732995342567,0.3418139626066112
0.3418139626066112,0.4970137911799006
0.4970137911799006,0.4952375562257806
0.4952375562257806,-0.19089831088844733
-0.19089831088844733,0.22248633976850496
0.22248633976850496,1.040618355085354
1.040618355085354,-0.46307003658057405
-0.46307003658057405,0.20665663914482685
0.20665663914482685,-0.28643345085967564
-0.28643345085967564,0.5814077273338322
0.5814077273338322,-0.15740239918997567
-0.15740239918997567,-0.3694792378872442
-0.3694792378872442,-0.07608582604632103
-0.07608582604632103,-0.09284659191090876
-0.09284659191090876,-0.297813524484919
-0.297813524484919,0.29549314065915805
0.29549314065915805,-0.08905230197538407
-0.08905230197538407,-0.330939954426823
-0.330939954426823,0.9224492358532579
0.9224492358532579,0.3463120645843325
0.3463120645843325,-0.8585141545135708
-0.8585141545135708,1.3342094900427774
1.3342094900427774,-0.34563276344337185
-0.34563276344337185,0.23030314252298026
0.23030314252298026,1.2010312691167226
1.2010312691167226,0.22519761635186994
0.22519761635186994,0.28937032070506075
0.28937032070506075,-0.39674149529661507
-0.39674149529661507,0.26307440361986906
0.26307440361986906,-0.5677795132218929
-0.5677795132218929,-0.6533439798342755
-0.6533439798342755,0.6764356330354394
0.6764356330354394,-0.567916235826988
-0.567916235826988,1.5899647281445282
1.5899647281445282,0.6414911521434509
0.6414911521434509,-0.026012920293362926
-0.026012920293362926,0.3226014831620566
0.3226014831620566,0.31351539412381807
0.31351539412381807,-0.23795959035355274
-0.23795959035355274,-0.36815412332987946
-0.36815412332987946,-0.06773186050864195
-0.06773186050864195,0.6847118036704188
0.6847118036704188,-0.037098067125778234
-0.037098067125778234,-0.36317251911227527
-0.36317251911227527,-0.123896073646972
-0.123896073646972,-0.2190524918871611
-0.2190524918871611,0.7868429376208181
0.7868429376208181,2.167052108130691
2.167052108130691,-0.3482593832848798
-0.3482593832848798,0.27499981774315163
0.27499981774315163,0.5229114711582544
0.5229114711582544,0.2652757385033538
0.2652757385033538,-0.3123098060878685
-0.3123098060878685,-0.708380285746054
-0.708380285746054,-0.039137149443397884
-0.039137149443397884,-0.19766036158776923
-0.19766036158776923,0.0667466251232031
0.0667466251232031,0.09057673131769693
0.09057673131769693,-0.23474154487783383
-0.23474154487783383,0.04651557528794447
0.04651557528794447,-0.13328223523974672
-0.13328223523974672,-0.19669235275162084
-0.19669235275162084,-0.34693803358732384
-0.34693803358732384,-0.17155168606521976
-0.17155168606521976,-0.1218260501902071
-0.1218260501902071,-0.2429689557861006
-0.2429689557861006,-0.20891254312292137
-0.20891254312292137,-0.1685271185031745
-0.1685271185031745,0.6785493944991319
0.6785493944991319,-0.038433705806575555
-0.038433705806575555,-0.02487767109803476
-0.02487767109803476,0.7726588768631799
0.7726588768631799,-0.0816532560747247
-0.0816532560747247,0.10086808964029112
0.10086808964029112,-0.26803852657478056
-0.26803852657478056,-0.6539153597515026
-0.6539153597515026,-0.3609722615374466
-0.3609722615374466,0.5270077654687422
0.5270077654687422,-0.03605409642849784
-0.03605409642849784,-0.21695129972335775
-0.21695129972335775,-0.4464101623209669
-0.4464101623209669,-0.7727479086459569
-0.7727479086459569,-0.2862561354766473
-0.2862561354766473,0.21939717161328823
0.21939717161328823,0.32116217647726475
0.32116217647726475,-1.4715005843793016
-1.4715005843793016,0.15593889748984227
0.15593889748984227,0.137743157764369
0.137743157764369,0.3764631811999812
0.3764631811999812,-0.06829920054393405
-0.06829920054393405,-0.08273433358149652
-0.08273433358149652,-0.036212487273295374
-0.036212487273295374,0.004806389569216403
0.004806389569216403,0.0657983426210744
0.0657983426210744,0.292187536964711
0.292187536964711,0.25126675961842376
0.25126675961842376,0.19146069253051573
0.19146069253051573,-0.2722622393971244
-0.2722622393971244,-0.6804752734502527
-0.6804752734502527,0.3768662490795254
0.3768662490795254,-0.44288372287964484
-0.44288372287964484,-0.28542748855453237
-0.28542748855453237,-0.8130986308938243
-0.8130986308938243,-0.02653833700664854
-0.02653833700664854,-0.0644780320042119
-0.0644780320042119,-0.4854407588732087
-0.4854407588732087,-2.0793057427070174
-2.0793057427070174,3.0545830614744522
3.0545830614744522,-0.5430581550267564
-0.5430581550267564,-1.5986550103748542
-1.5986550103748542,0.07127380613175602
0.07127380613175602,0.8589484078469107
0.8589484078469107,0.589940788816141
0.589940788816141,0.061565975850321336
0.061565975850321336,-0.6411977904779322
-0.6411977904779322,0.00431589161060417
0.00431589161060417,0.17115264491247226
0.17115264491247226,-0.35772644751364924
-0.35772644751364924,0.18648162493039794
0.18648162493039794,0.4076827923179344
0.4076827923179344,0.20801221847763315
0.20801221847763315,0.2518563988394557
0.2518563988394557,0.06383022765950774
0.06383022765950774,0.2882167606099209
0.2882167606099209,0.1556742678713684
0.1556742678713684,0.11139202856047517
0.11139202856047517,0.04752371760392577
0.04752371760392577,-0.7780493949677942
-0.7780493949677942,-0.01430095926671535
-0.01430095926671535,-0.016705198569205968
-0.016705198569205968,0.5513445011750948
0.5513445011750948,0.15101651434826235
0.15101651434826235,-0.1403466139339022
-0.1403466139339022,-0.503659667870949
-0.503659667870949,-0.4096129235934601
-0.4096129235934601,-0.9495826882289337
-0.9495826882289337,-0.08433967061844029
-0.08433967061844029,-0.8015926621191239
-0.8015926621191239,0.9046272516481612
0.9046272516481612,1.2688865707296142
1.2688865707296142,0.01928441016020634
0.01928441016020634,0.004103974216688754
0.004103974216688754,0.28878948071242777
0.28878948071242777,-0.7497148165071262
-0.7497148165071262,0.07766667466723241
0.07766667466723241,-0.27649420181311124
-0.27649420181311124,-0.25019783669279383
-0.25019783669279383,0.10884888146010127
0.10884888146010127,-0.3224622321624625
-0.3224622321624625,0.3184152361022991
0.3184152361022991,0.08911098894654003
0.08911098894654003,-0.0012947430740763083
-0.0012947430740763083,0.2110948822633542
0.2110948822633542,-0.060417120362250006
-0.060417120362250006,0.7228060978366571
0.7228060978366571,-1.0381704629427428
-1.0381704629427428,0.15661903737252791
0.15661903737252791,-0.6442525141082999
-0.6442525141082999,0.5368881280858848
0.5368881280858848,-0.502609414829232
-0.502609414829232,0.15471057837856989
0.15471057837856989,0.09125382669246558
0.09125382669246558,0.015143273149024335
0.015143273149024335,-0.48466123195779043
-0.48466123195779043,-0.45279077884203217
-0.45279077884203217,0.11452855667703124
0.11452855667703124,0.2086085907601216
0.2086085907601216,0.5323690746694779
0.5323690746694779,0.2028949218302563
0.2028949218302563,-0.08689813451471791
-0.08689813451471791,-1.3220823203326062
-1.3220823203326062,0.05103738974118504
0.05103738974118504,-0.11695848916450487
-0.11695848916450487,-1.0240286876943454
-1.0240286876943454,1.1813601070367004
1.1813601070367004,-0.36713870144179656
-0.36713870144179656,-0.0023894402688138167
-0.0023894402688138167,-0.9005218656527455
-0.9005218656527455,0.532954623077962
0.532954623077962,-0.14649833910148485
-0.14649833910148485,-0.21252688651942472
-0.21252688651942472,0.1479842300054861
0.1479842300054861,-0.2492260416171222
-0.2492260416171222,0.33352558702336527
0.33352558702336527,-0.24653194555129962
-0.24653194555129962,-1.533932992004011
-1.533932992004011,-4.537592085685956
-4.537592085685956,2.3235448119711606
2.3235448119711606,0.42836416005319267
0.42836416005319267,-0.057223318786147816
-0.057223318786147816,0.7195255504511289
0.7195255504511289,0.47575579371233856
0.47575579371233856,-0.5406505501250636
-0.5406505501250636,-1.345514041805547
-1.345514041805547,-0.22496312763159268
-0.22496312763159268,-0.12445345592961818
-0.12445345592961818,0.6008567479179373
0.6008567479179373,-0.8385438417679353
-0.8385438417679353,-0.6996444961165009
-0.6996444961165009,0.2533049122035095
0.2533049122035095,0.14475335159195266
0.14475335159195266,0.0032538616063331085
0.0032538616063331085,-0.0747397006504779
-0.0747397006504779,0.4247752127238914
0.4247752127238914,-0.5799207248083031
-0.5799207248083031,0.5653568348981997
0.5653568348981997,-0.30286107499240017
-0.30286107499240017,-0.6799332470784653
-0.6799332470784653,0.240091870060057
0.240091870060057,0.26119434070703834
0.26119434070703834,1.0740717707689398
1.0740717707689398,-0.15072973694955752
-0.15072973694955752,-0.2800413169929072
-0.2800413169929072,0.6160466001392624
0.6160466001392624,-0.15405996580426753
-0.15405996580426753,0.549913025043651
0.549913025043651,0.49820680148405766
0.49820680148405766,0.5176105734224448
0.5176105734224448,0.17186667531141311
0.17186667531141311,0.1384446924409012
0.1384446924409012,-1.5435224729572707
-1.5435224729572707,-0.9257730141655076
-0.9257730141655076,-0.46960565981499697
-0.46960565981499697,-0.016617720665595127
-0.016617720665595127,-0.5057777246335351
-0.5057777246335351,0.08455920930059095
0.08455920930059095,0.6526629534728612
0.6526629534728612,-0.15539564543620993
-0.15539564543620993,-0.35348478288849583
-0.35348478288849583,0.06310670182276906
0.06310670182276906,-1.1477690129845093
-1.1477690129845093,2.1237699252650604
2.1237699252650604,0.7188951521778032
0.7188951521778032,-0.21016534234794734
-0.21016534234794734,-0.8585016860542989
-0.8585016860542989,-0.47859182893093105
-0.47859182893093105,1.0042548524880404
1.0042548524880404,1.3610338903895738
1.3610338903895738,0.33338913901697115
0.33338913901697115,-0.2367496649143171
-0.2367496649143171,0.439802208628494
0.439802208628494,0.07183828580458808
0.07183828580458808,-0.1043725021930061
-0.1043725021930061,-0.4269279371258801
-0.4269279371258801,0.6576814403407742
0.6576814403407742,-0.6525953930786688
-0.6525953930786688,-0.33310281234245287
-0.33310281234245287,-0.39978723384388254
-0.39978723384388254,0.09945986518458656
0.09945986518458656,-0.5474955280743908
-0.5474955280743908,-0.7009987923868926
-0.7009987923868926,-0.05418707997489694
-0.05418707997489694,0.45464326033865754
0.45464326033865754,0.004445361329600813
0.004445361329600813,-0.021751598810785543
-0.021751598810785543,0.7373725224366615
0.7373725224366615,0.7049195236331375
0.7049195236331375,-0.19630096958886403
-0.19630096958886403,-0.5211826875554716
-0.5211826875554716,0.1763870063154408
0.1763870063154408,-0.12063739249024963
-0.12063739249024963,-1.3799692128017904
-1.3799692128017904,1.4446816481422857
1.4446816481422857,-0.1505850498768231
-0.1505850498768231,-0.21685194771208155
-0.21685194771208155,-0.3132949935613286
-0.3132949935613286,0.40278871702580554
0.40278871702580554,1.0136893282113737
1.0136893282113737,-0.05762647408045566
-0.05762647408045566,0.09708144870951457
0.09708144870951457,0.37087697226515615
0.37087697226515615,-0.4901425352211091
-0.4901425352211091,0.3106963454944956
0.3106963454944956,-0.6634821101179379
-0.6634821101179379,0.9643506715119304
0.9643506715119304,-0.15717437692972694
-0.15717437692972694,0.9991632557905273
0.9991632557905273,0.07327491835950985
0.07327491835950985,-0.005815897019306001
-0.005815897019306001,-1.3974967309826534
-1.3974967309826534,-0.6413960286427256
-0.6413960286427256,-0.5345411747099958
-0.5345411747099958,-1.1458597330703848
-1.1458597330703848,-0.027597647374793692
-0.027597647374793692,0.4393998237364105
0.4393998237364105,0.46747075859675913
0.46747075859675913,-1.0462198144641448
-1.0462198144641448,0.34282005298702567
0.34282005298702567,0.06044450074313854
0.06044450074313854,0.9803217183524587
0.9803217183524587,-6.1147164580843265
-6.1147164580843265,2.06971493898736
2.06971493898736,-0.643493868535532
-0.643493868535532,-1.451198921658973
-1.451198921658973,1.022820285256639
1.022820285256639,0.05883520731867946
0.05883520731867946,0.13038965593753
0.13038965593753,1.255719492914211
1.255719492914211,1.373913865579985
1.373913865579985,0.5164302429952844
0.5164302429952844,-0.21509947271138039
-0.21509947271138039,-0.05134316289270948
-0.05134316289270948,1.6090744640132737
1.6090744640132737,0.2838193500176996
0.2838193500176996,0.06484735968951882
0.06484735968951882,-0.31894587073622926
-0.31894587073622926,0.09603985040077613
0.09603985040077613,0.04178705413628952
0.04178705413628952,0.24542869059327244
0.24542869059327244,-0.7043219720108916
-0.7043219720108916,0.1664550254628715
0.1664550254628715,0.19100594632792334
0.19100594632792334,-0.25260314702824643
-0.25260314702824643,-0.03558612027920968
-0.03558612027920968,-0.27756180148817144
-0.27756180148817144,-0.6754558605370103
-0.6754558605370103,1.029440670293272
1.029440670293272,0.40191124565328007
0.40191124565328007,-0.10295608069239406
-0.10295608069239406,0.9079123347672271
0.9079123347672271,-0.03173301217209434
-0.03173301217209434,0.18054945825307528
0.18054945825307528,0.6327424250245632
0.6327424250245632,-0.9700240364802953
-0.9700240364802953,-1.1495478246720499
-1.1495478246720499,-0.0943969168386161
-0.0943969168386161,0.8484809568981425
0.8484809568981425,0.13896497989944404
0.13896497989944404,0.03102854702473549
0.03102854702473549,-0.11775321565383845
-0.11775321565383845,-0.3210355651375698
-0.3210355651375698,-0.09827335360590485
-0.09827335360590485,0.26712092419619854
0.26712092419619854,-0.2093230406846934
-0.2093230406846934,-0.0905895258694016
-0.0905895258694016,-1.2274997327942654
-1.2274997327942654,0.4980563362691113
0.4980563362691113,-0.5553042754781989
-0.5553042754781989,-0.23755506273682928
-0.23755506273682928,0.7550886326115644
0.7550886326115644,1.2184684395472525
1.2184684395472525,0.47301734231529363
0.47301734231529363,1.3171820482106267
1.3171820482106267,-0.3548604537128377
-0.3548604537128377,1.2001968054320042
1.2001968054320042,-0.0169199120917747
-0.0169199120917747,0.2118025701559613
0.2118025701559613,-0.238925101208506
-0.238925101208506,-0.7406173098564373
-0.7406173098564373,-0.7178692337106971
-0.7178692337106971,-0.46095089276462553
-0.46095089276462553,-0.18870205827532863
-0.18870205827532863,-0.14714407085419973
-0.14714407085419973,0.3096986845947685
0.3096986845947685,-0.7128254417120995
-0.7128254417120995,0.5140711458094496
0.5140711458094496,-1.0541762111158943
-1.0541762111158943,0.9217770663062664
0.9217770663062664,3.3737203247102
3.3737203247102,-2.363699128936154
-2.363699128936154,0.1993177797589264
0.1993177797589264,-1.427296903989106
-1.427296903989106,-0.13747501770673579
-0.13747501770673579,0.13198357830740484
0.13198357830740484,0.4086817005348767
0.4086817005348767,0.40295013311352973
0.40295013311352973,-0.2832341150308529
-0.2832341150308529,-0.21843255540895823
-0.21843255540895823,0.07441263024664943
0.07441263024664943,-0.087519017989937
-0.087519017989937,0.19907172977672838
0.19907172977672838,-0.417549175989116
-0.417549175989116,-0.23644488361472304
-0.23644488361472304,-0.07125797770509189
-0.07125797770509189,-0.3470735142011718
-0.3470735142011718,0.9324432054627535
0.9324432054627535,-0.11223310748028745
-0.11223310748028745,-0.24248711404832107
-0.24248711404832107,0.358413790503944
0.358413790503944,-0.5682706727105223
-0.5682706727105223,0.42981652445113944
0.42981652445113944,0.537746351577342
0.537746351577342,0.5008272205263069
0.5008272205263069,0.7580449579078882
0.7580449579078882,-0.593394839981784
-0.593394839981784,0.416366195060498
0.416366195060498,0.008475351330730624
0.008475351330730624,0.060683602526291
0.060683602526291,-0.5788380396176174
-0.5788380396176174,-0.20815581638262612
-0.20815581638262612,0.5037301465018067
0.5037301465018067,0.12838384195906996
0.12838384195906996,0.12225787361243225
0.12225787361243225,0.20697164716373936
0.20697164716373936,-0.41548499925953375
-0.41548499925953375,-0.4363109564536325
-0.4363109564536325,-1.2692543259241698
-1.2692543259241698,-0.008069829692313195
-0.008069829692313195,0.3327774431321325
0.3327774431321325,0.12697537527706462
0.12697537527706462,0.42758719648389926
0.42758719648389926,0.17070860407344202
0.17070860407344202,-1.9151533257542186
-1.9151533257542186,0.3566265880135519
0.3566265880135519,0.3371590004777502
0.3371590004777502,1.8186692564318936
1.8186692564318936,0.7244593106973494
0.7244593106973494,0.3837479772495778
0.3837479772495778,-0.02226574486231369
-0.02226574486231369,0.041761913742127815
0.041761913742127815,-0.010933914223239905
-0.010933914223239905,0.03534853028088358
0.03534853028088358,-0.7144144847997326
-0.7144144847997326,-0.5437812911974746
-0.5437812911974746,0.537548685583472
0.537548685583472,-0.005721043202012329
-0.005721043202012329,-0.41383153168460973
-0.41383153168460973,0.1600391251050528
0.1600391251050528,0.9274964103950244
0.9274964103950244,0.8368961085098343
0.8368961085098343,-0.14019291597099798
-0.14019291597099798,1.5118134040590852
1.5118134040590852,-1.3349134389202633
-1.3349134389202633,-0.35029413808201687
-0.35029413808201687,-0.5660878758029423
-0.5660878758029423,-0.19916860762142632
-0.19916860762142632,0.8495342785188007
0.8495342785188007,-0.5057145275059014
-0.5057145275059014,0.020553878636718217
0.020553878636718217,-0.4521092646209112
-0.4521092646209112,0.5247503980122032
0.5247503980122032,-0.07028166158867667
-0.07028166158867667,-0.5042509339026865
-0.5042509339026865,-0.010169935239540599
-0.010169935239540599,-0.12027967435423331
-0.12027967435423331,-0.7512638911660208
-0.7512638911660208,-0.834526085404537
-0.834526085404537,0.8124129437766042
0.8124129437766042,-0.5578710349907655
-0.5578710349907655,0.03623743744548528
0.03623743744548528,0.18962141881790026
0.18962141881790026,-0.2738019657753774
-0.2738019657753774,-2.0317158729029403
-2.0317158729029403,0.08627762005880617
0.08627762005880617,0.0015164142011649727
0.0015164142011649727,-0.17167686359914847
-0.17167686359914847,0.5723729071641412
0.5723729071641412,0.6562064823326216
0.6562064823326216,0.29211298008705766
0.29211298008705766,-0.028245370954671667
-0.028245370954671667,-0.738408413296885
-0.738408413296885,1.28583444255666
1.28583444255666,0.7246780186755897
0.7246780186755897,-0.07662896871889902
-0.07662896871889902,0.097289770380944
0.097289770380944,0.16558044604009575
0.16558044604009575,-0.028618590678175727
-0.028618590678175727,1.9300385093281383
1.9300385093281383,0.22371397358536924
0.22371397358536924,-0.581608833848832
-0.581608833848832,0.007120357992227668
0.007120357992227668,-1.0398070810199025
-1.0398070810199025,-0.7910444963604576
-0.7910444963604576,0.4371733377145253
0.4371733377145253,-0.9500230058924117
-0.9500230058924117,0.8483052120813689
0.8483052120813689,0.9792513429558035
0.9792513429558035,0.13353548060195264
0.13353548060195264,-0.22509992675916735
-0.22509992675916735,-0.24033080267623932
-0.24033080267623932,-0.17276387957179604
-0.17276387957179604,0.7158616314503115
0.7158616314503115,-0.30793141495823245
-0.30793141495823245,-0.04540338252955723
-0.04540338252955723,-0.9302691271222333
-0.9302691271222333,-0.7434134393741784
-0.7434134393741784,-0.3360035763735286
-0.3360035763735286,-0.5090858832891427
-0.5090858832891427,0.2200363220693225
0.2200363220693225,0.14204681004574274
0.14204681004574274,0.6457690495586672
0.6457690495586672,0.2251292638861498
0.2251292638861498,-0.12971495512943432
-0.12971495512943432,-0.021183115993214405
-0.021183115993214405,0.6936841060516439
0.6936841060516439,-0.3917698751545374
-0.3917698751545374,0.5059723181625634
0.5059723181625634,-0.7954329279904576
-0.7954329279904576,0.335714043935666
0.335714043935666,-0.39557407627234387
-0.39557407627234387,0.5740907876229673
0.5740907876229673,0.24562334221079998
0.24562334221079998,-0.20349466066142588
-0.20349466066142588,-0.03920711525958314
-0.03920711525958314,-0.1891695679587856
-0.1891695679587856,0.051999648199632605
0.051999648199632605,-0.6314432859242285
-0.6314432859242285,1.0304187449617401
1.0304187449617401,1.1022688894822659
1.1022688894822659,-0.11486720264959445
-0.11486720264959445,-0.8000706579996406
-0.8000706579996406,-0.6697222544657914
-0.6697222544657914,0.3371196896558258
0.3371196896558258,-0.26809233542568406
-0.26809233542568406,-0.4948568197212433
-0.4948568197212433,-0.3335393940743055
-0.3335393940743055,-0.26299141832464157
-0.26299141832464157,-0.33384268077242485
-0.33384268077242485,-0.4419382992056331
-0.4419382992056331,-0.3093296834332477
-0.3093296834332477,-0.30911771926450254
-0.30911771926450254,0.5783489323884602
0.5783489323884602,0.5245486532790028
0.5245486532790028,-0.23746724707132058
-0.23746724707132058,0.23041864087533798
0.23041864087533798,0.26468644739281444
0.26468644739281444,-0.13936247094098284
-0.13936247094098284,0.07710994706548126
0.07710994706548126,2.0027826991652953
2.0027826991652953,0.023442624843892836
0.023442624843892836,0.0446611403748435
0.0446611403748435,-0.29629694833448667
-0.29629694833448667,0.2816820750829002
0.2816820750829002,0.7757926589618268
0.7757926589618268,-1.6265748814663867
-1.6265748814663867,0.8772897576321104
0.8772897576321104,1.8029144661152976
1.8029144661152976,1.2669982418069756
1.2669982418069756,-0.6875924669392616
-0.6875924669392616,-0.7991599757672406
-0.7991599757672406,-0.7483135872914871
-0.7483135872914871,-0.17030076948056466
-0.17030076948056466,0.17137545420793002
0.17137545420793002,1.2249358915219746
1.2249358915219746,-0.22856104481388287
-0.22856104481388287,0.06541359036383051
0.06541359036383051,-0.17692502567166749
-0.17692502567166749,-0.4607471282822739
-0.4607471282822739,0.5099492246075469
0.5099492246075469,-0.2988617241602053
-0.2988617241602053,-0.7803538157760029
-0.7803538157760029,1.21682957450046
1.21682957450046,0.20151253974530695
0.20151253974530695,0.8932506638453184
0.8932506638453184,-1.4613245243733017
-1.4613245243733017,-0.02312290902381729
-0.02312290902381729,0.757234044254386
0.757234044254386,1.3856104541921932
1.3856104541921932,1.8510729535133723
1.8510729535133723,-0.27549787164398065
-0.27549787164398065,0.2146331994086929
0.2146331994086929,-0.6398650747454463
-0.6398650747454463,-0.30450408204338836
-0.30450408204338836,0.02444288258605976
0.02444288258605976,-0.3968346574746059
-0.3968346574746059,0.5142278469620054
0.5142278469620054,0.34893797452424147
0.34893797452424147,-0.012819156297023494
-0.012819156297023494,-0.3774730757248694
-0.3774730757248694,0.706121000837572
0.706121000837572,0.38478892289454547
0.38478892289454547,0.4148498051380627
0.4148498051380627,-0.0419567241265295
-0.0419567241265295,-0.657282934616915
-0.657282934616915,0.45948033121307225
0.45948033121307225,0.6426290812016411
0.6426290812016411,0.11474918504626633
0.11474918504626633,-0.6197483519129305
-0.6197483519129305,-0.7219126476977573
-0.7219126476977573,-0.1936201627545918
-0.1936201627545918,0.014398125387741104
0.014398125387741104,-0.9592014729085163
-0.9592014729085163,-0.32547676771434847
-0.32547676771434847,-0.44309962530794034
-0.44309962530794034,0.981749608868424
0.981749608868424,0.7993210278158485
0.7993210278158485,-0.8115494499218832
-0.8115494499218832,0.302384701605313
0.302384701605313,0.5203292271831357
0.5203292271831357,0.3321754643880284
0.3321754643880284,0.11720820268644826
0.11720820268644826,1.3806744026009914
1.3806744026009914,0.14196375631348387
0.14196375631348387,0.4638980920213132
0.4638980920213132,-0.2425523031746242
-0.2425523031746242,-0.3254344473294229
-0.3254344473294229,0.05335229537551244
0.05335229537551244,-0.19458675913686216
-0.19458675913686216,-0.33887892811195236
-0.33887892811195236,-0.17694450012353108
-0.17694450012353108,-0.991968808762159
-0.991968808762159,0.23057286755837864
0.23057286755837864,-0.42103611300274385
-0.42103611300274385,0.31224008312135004
0.31224008312135004,0.6261144493450707
0.6261144493450707,-0.5148246031953143
-0.5148246031953143,0.10035263032758446
0.10035263032758446,0.18408889866701544
0.18408889866701544,0.11757114374603715
0.11757114374603715,-1.0916645256267048
-1.0916645256267048,-0.67441867280665
-0.67441867280665,-0.5251388009272846
-0.5251388009272846,-0.40362757321725107
-0.40362757321725107,-0.05977076521534879
-0.05977076521534879,-0.22074941921016553
-0.22074941921016553,-0.1511294202573086
-0.1511294202573086,0.15329367617684214
0.15329367617684214,0.25554950452803116
0.25554950452803116,0.32499188900248105
0.32499188900248105,-3.41887963368687
-3.41887963368687,0.5661150800470597
0.5661150800470597,-1.107173601459403
-1.107173601459403,0.2927697798283053
0.2927697798283053,-0.0980889568942307
-0.0980889568942307,0.5130879244583183
0.5130879244583183,-0.4003568732860066
-0.4003568732860066,0.02465520448480827
0.02465520448480827,-0.06222368361222138
-0.06222368361222138,-0.2687091455119207
-0.2687091455119207,-0.4752081405831155
-0.4752081405831155,0.4348754375168295
0.4348754375168295,-0.24722090099743477
-0.24722090099743477,0.1769123279991994
0.1769123279991994,-0.16171044637443566
-0.16171044637443566,-0.3026550976997076
-0.3026550976997076,-1.3923237719743138
-1.3923237719743138,0.17295560596728943
0.17295560596728943,-0.2515050067687092
-0.2515050067687092,-0.8184624016953961
-0.8184624016953961,-0.19806245511207587
-0.19806245511207587,-0.12104542436995727
-0.12104542436995727,-0.09632417980364101
-0.09632417980364101,-0.10600246898510042
-0.10600246898510042,0.36462371225581314
0.36462371225581314,0.0595628047266685
0.0595628047266685,-0.8536951707288434
-0.8536951707288434,0.35352750433150365
0.35352750433150365,-0.5415249213132707
-0.5415249213132707,0.831560055235383
0.831560055235383,-1.2791928032816766
-1.2791928032816766,0.8758054791579762
0.8758054791579762,-0.19856993136392534
-0.19856993136392534,-0.43568214839131597
-0.43568214839131597,0.3427893948797786
0.3427893948797786,0.6492738327308324
0.6492738327308324,-0.05796125920505273
-0.05796125920505273,0.24029050717313433
0.24029050717313433,0.6584438346492979
0.6584438346492979,-0.7574124551710406
-0.7574124551710406,0.07661391837396346
0.07661391837396346,-0.6585643004670085
-0.6585643004670085,-0.5041647436690028
-0.5041647436690028,0.4167030843160054
0.4167030843160054,1.539723930295636
1.539723930295636,-1.0640636648555677
-1.0640636648555677,0.2832318110225537
0.2832318110225537,0.2725817580411918
0.2725817580411918,-0.32620904404647505
-0.32620904404647505,-0.4107426068669819
-0.4107426068669819,-0.22635353109655057
-0.22635353109655057,-0.2990019966588482
-0.2990019966588482,0.28209436200890553
0.28209436200890553,-0.05694887401508641
-0.05694887401508641,0.49139375987211303
0.49139375987211303,-0.13724248729696337
-0.13724248729696337,1.0620660737285312
1.0620660737285312,-0.726149632818023
-0.726149632818023,0.40659491757279215
0.40659491757279215,-0.4085767466128243
-0.4085767466128243,-1.3436011867135607
-1.3436011867135607,-0.38032638838449917
-0.38032638838449917,0.34672057529089956
0.34672057529089956,0.17827234960982413
0.17827234960982413,0.008403215631655301
0.008403215631655301,-0.2884643563979388
-0.2884643563979388,0.20575170201499293
0.20575170201499293,0.0792361852052416
0.0792361852052416,0.508568028389803
0.508568028389803,0.2214528332939173
0.2214528332939173,-1.8226123237197775
-1.8226123237197775,0.39416370120199323
0.39416370120199323,-1.0348153839349652
-1.0348153839349652,0.19108512605371078
0.19108512605371078,-0.6914397099695884
-0.6914397099695884,0.43180976948469124
0.43180976948469124,0.8518714427841098
0.8518714427841098,0.039317078627130596
0.039317078627130596,-0.34474588784033383
-0.34474588784033383,-0.25600378338014423
-0.25600378338014423,-0.19704102429397363
-0.19704102429397363,-0.3489635712124802
-0.3489635712124802,0.23357928512312598
0.23357928512312598,0.4559822294658525
0.4559822294658525,0.07971968173772341
0.07971968173772341,1.571135724926585
1.571135724926585,0.5388311972602827
0.5388311972602827,-0.246769679737651
-0.246769679737651,0.6695178270316197
0.6695178270316197,0.15871143461511925
0.15871143461511925,-0.08070100008721022
-0.08070100008721022,0.4262771024718246
0.4262771024718246,-0.218966752336251
-0.218966752336251,0.20276509400120293
0.20276509400120293,1.4413048195841065
1.4413048195841065,0.3593832523586343
0.3593832523586343,-0.32514527376603725
-0.32514527376603725,-0.2621435869574095
-0.2621435869574095,-0.8427192832321204
-0.8427192832321204,0.27267510403654865
0.27267510403654865,0.05398922778258258
0.05398922778258258,-0.5773057208861373
-0.5773057208861373,-0.006553307904377999
-0.006553307904377999,0.3683503028126003
0.3683503028126003,-0.30974033859662964
-0.30974033859662964,0.5664897828039828
0.5664897828039828,-0.2521338494994535
-0.2521338494994535,0.16385168946530543
0.16385168946530543,-0.1060301298464732
-0.1060301298464732,-0.11605982633941482
-0.11605982633941482,0.6824674146049399
0.6824674146049399,-0.07070392707446228
-0.07070392707446228,0.6785217441456795
0.6785217441456795,-0.1886251350703101
-0.1886251350703101,0.44457957836291745
0.44457957836291745,0.26609396008940084
0.26609396008940084,1.523672080525914
1.523672080525914,-0.22964650495608951
-0.22964650495608951,0.20944429044011006
0.20944429044011006,-1.3682900809712222
-1.3682900809712222,0.19679401891915038
0.19679401891915038,0.03392029318624159
0.03392029318624159,1.3303599228108993
1.3303599228108993,0.3270264541424015
0.3270264541424015,0.34010000101272964
0.34010000101272964,-0.025476078482438685
-0.025476078482438685,-1.713596252231865
-1.713596252231865,-0.8190180483015682
-0.8190180483015682,-0.21399795373050348
-0.21399795373050348,0.38148221894070133
0.38148221894070133,-0.33866053651118505
-0.33866053651118505,0.31038955393250584
0.31038955393250584,-0.3264101194194688
-0.3264101194194688,-0.4608666973287632
-0.4608666973287632,0.06625635598021819
0.06625635598021819,-0.48857430040690103
-0.48857430040690103,-0.06559966817763424
-0.06559966817763424,-0.2230577391450441
-0.2230577391450441,-0.060880779598189785
-0.060880779598189785,1.1555308450061914
1.1555308450061914,-0.03993537094965485
-0.03993537094965485,0.48471408268922367
0.48471408268922367,0.21256274922611965
0.21256274922611965,2.345882407389202
2.345882407389202,-0.3410518863111284
-0.3410518863111284,-0.8257282049368209
-0.8257282049368209,-0.06440544897367713
-0.06440544897367713,0.035877829578947584
0.035877829578947584,0.2399870743299958
0.2399870743299958,0.3311246864686471
0.3311246864686471,0.17727409255961518
0.17727409255961518,0.1288394695819113
0.1288394695819113,0.3228910752424505
0.3228910752424505,-0.8248915803361796
-0.8248915803361796,0.21478711115413734
0.21478711115413734,0.038009533980655215
0.038009533980655215,0.14663076769578415
0.14663076769578415,-0.3179346874178265
-0.3179346874178265,1.6247299041112258
1.6247299041112258,-0.1622768429331454
-0.1622768429331454,-0.15176153526036326
-0.15176153526036326,0.015348297328460419
0.015348297328460419,0.3735675528417541
0.3735675528417541,1.3257319088813113
1.3257319088813113,1.070805056101544
1.070805056101544,0.4727143462471215
0.4727143462471215,0.43858446945185187
0.43858446945185187,-0.10547950884705343
-0.10547950884705343,-0.6842455002339004
-0.6842455002339004,0.4657157440577019
0.4657157440577019,-1.0138102573872827
-1.0138102573872827,-0.7488163088707032
-0.7488163088707032,0.1180003733339289
0.1180003733339289,0.07836196104130419
0.07836196104130419,0.22830330286960732
0.22830330286960732,-0.08961812034231817
-0.08961812034231817,-0.41634266312904383
-0.41634266312904383,-0.18227697672815857
-0.18227697672815857,0.5829247313066371
0.5829247313066371,-0.2964106720961466
-0.2964106720961466,0.37660525238452625
0.37660525238452625,0.1997180854596763
0.1997180854596763,-0.039167236854608385
-0.039167236854608385,1.0305568963689837
1.0305568963689837,1.841987410949084
1.841987410949084,0.3573563092878657
0.3573563092878657,-0.43318995218350936
-0.43318995218350936,-0.39807957326253823
-0.39807957326253823,0.8928094167363559
0.8928094167363559,0.7042049559589317
0.7042049559589317,0.275197040281464
0.275197040281464,-0.543436700130739
-0.543436700130739,-0.2997466571246391
-0.2997466571246391,-0.08122791825964362
-0.08122791825964362,-0.4663653772364401
-0.4663653772364401,-0.05103592626850988
-0.05103592626850988,0.11146914219706057
0.11146914219706057,-0.758762774524672
-0.758762774524672,0.8155950696704987
0.8155950696704987,0.5614158811527863
0.5614158811527863,0.6247498713877642
0.6247498713877642,0.934132692965264
0.934132692965264,-0.3745555837694392
-0.3745555837694392,-0.736125029695035
-0.736125029695035,0.8026833037688108
0.8026833037688108,0.35471140484315217
0.35471140484315217,-0.2939946360445255
-0.2939946360445255,-0.026937216827268646
-0.026937216827268646,0.09597727061280496
0.09597727061280496,-0.19346564854570994
-0.19346564854570994,-0.1316066961875369
-0.1316066961875369,-0.4406883349359529
-0.4406883349359529,-0.24405761627733769
-0.24405761627733769,0.47857239863276896
0.47857239863276896,-0.12028752573695016
-0.12028752573695016,0.3899208289567909
0.3899208289567909,-0.15983908779176964
-0.15983908779176964,0.006053248545363287
0.006053248545363287,-0.12982070748374497
-0.12982070748374497,0.6290725872390003
0.6290725872390003,0.2044322114470478
0.2044322114470478,0.35272442018214545
0.35272442018214545,-0.8809097836342284
-0.8809097836342284,-0.8627069831135518
-0.8627069831135518,-0.22986012225643876
-0.22986012225643876,-0.5735088880775534
-0.5735088880775534,-0.1661925171643526
-0.1661925171643526,0.3959949654414922
0.3959949654414922,-0.809786918232471
-0.809786918232471,0.19786015197166873
0.19786015197166873,0.03718101228406162
0.03718101228406162,-0.0002211978340166276
-0.0002211978340166276,-0.41696646777397217
-0.41696646777397217,0.2615666777684187
0.2615666777684187,0.7907077658839646
0.7907077658839646,0.768803892541038
0.768803892541038,-0.3370504475767788
-0.3370504475767788,-0.7153893393768601
-0.7153893393768601,0.6608596778435528
0.6608596778435528,-1.2947299083781916
-1.2947299083781916,0.29623120712977186
0.29623120712977186,-0.3317818315913673
-0.3317818315913673,0.009562325428202649
0.009562325428202649,-0.22617455083881655
-0.22617455083881655,0.6010583009984394
0.6010583009984394,0.2880775344128296
0.2880775344128296,0.20550261800578323
0.20550261800578323,-1.210406517271183
-1.210406517271183,0.534368463458634
0.534368463458634,0.17651598331629004
0.17651598331629004,0.4439913871644767
0.4439913871644767,-0.24653126589686178
-0.24653126589686178,-0.8952246948333543
-0.8952246948333543,-1.3648029780673634
-1.3648029780673634,-0.5465190222014265
-0.5465190222014265,-0.07417940650611127
-0.07417940650611127,-2.357664640421948
-2.357664640421948,0.9779871717385911
0.9779871717385911,0.3299565469187104
0.3299565469187104,0.45656497199134927
0.45656497199134927,-0.512224876208468
-0.512224876208468,-0.599698466322124
-0.599698466322124,0.8566230379125278
0.8566230379125278,0.13086453743114598
0.13086453743114598,-0.38443313892475595
-0.38443313892475595,-0.830174340180517
-0.830174340180517,0.016309522452750136
0.016309522452750136,-0.5558910447651205
-0.5558910447651205,-1.024351086427437
-1.024351086427437,0.10510733299716422
0.10510733299716422,0.055673439210628776
0.055673439210628776,-0.0819860632323529
-0.0819860632323529,-0.46910268403071026
-0.46910268403071026,-0.30084716096105135
-0.30084716096105135,0.19379791230370041
0.19379791230370041,-0.19014391050858173
-0.19014391050858173,-0.7029826147309933
-0.7029826147309933,0.02882751266224056
0.02882751266224056,0.003965832633981278
0.003965832633981278,0.3830295001505857
0.3830295001505857,0.330424907806599
0.330424907806599,0.04287521801061692
0.04287521801061692,1.6739029342275755
1.6739029342275755,-0.16068894021843852
-0.16068894021843852,0.03764062604937098
0.03764062604937098,0.5735028643621147
0.5735028643621147,0.6513115755410162
0.6513115755410162,-0.08149719023827129
-0.08149719023827129,0.3492588906266729
0.3492588906266729,-1.2737119734663138
-1.2737119734663138,-0.7396987159941424
-0.7396987159941424,-0.6135780139825526
-0.6135780139825526,0.4409552147384689
0.4409552147384689,0.4094554409856507
0.4094554409856507,1.3740803933807055
1.3740803933807055,-0.9315500513763988
-0.9315500513763988,0.23584993567128545
0.23584993567128545,0.578324194858953
0.578324194858953,0.3458678355810589
0.3458678355810589,0.6733776548974634
0.6733776548974634,-0.049403714958396336
-0.049403714958396336,0.5793897808076816
0.5793897808076816,-1.1438190032441506
-1.1438190032441506,-1.0099358928567206
-1.0099358928567206,0.03382578324972596
0.03382578324972596,0.06799833742163401
0.06799833742163401,-0.051728421600962735
-0.051728421600962735,-3.216441660247756
-3.216441660247756,0.02935328929760308
0.02935328929760308,0.8717631840392096
0.8717631840392096,0.3959718643800033
0.3959718643800033,0.057369893239730345
0.057369893239730345,-0.23930423801568113
-0.23930423801568113,0.8534458304501298
0.8534458304501298,6.448583572559412
6.448583572559412,1.063625056795657
1.063625056795657,0.5192888210127125
0.5192888210127125,0.7838275365597847
0.7838275365597847,-0.32385489644412224
-0.32385489644412224,0.4808115849627405
0.4808115849627405,-0.7636642163744387
-0.7636642163744387,-0.5146182908405236
-0.5146182908405236,0.04178059925810371
0.04178059925810371,-0.19925058003234924
-0.19925058003234924,-0.2002770616305759
-0.2002770616305759,0.18890078973209162
0.18890078973209162,1.707575661590152
1.707575661590152,-0.08079740209386269
-0.08079740209386269,0.004759143160327412
0.004759143160327412,-0.9476008060026637
-0.9476008060026637,0.1462668880442001
0.1462668880442001,0.768220787083851
0.768220787083851,-0.33574716490253215
-0.33574716490253215,0.563099167666882
0.563099167666882,-0.5492317114559774
-0.5492317114559774,0.30600917288121987
0.30600917288121987,-0.5198309939026275
-0.5198309939026275,0.12004316194833227
0.12004316194833227,0.05240938201879215
0.05240938201879215,0.38488881835691663
0.38488881835691663,0.04953142150185956
0.04953142150185956,0.2127515528228973
0.2127515528228973,-0.5385427330193616
-0.5385427330193616,0.44387857358138927
0.44387857358138927,-0.5965740323047375
-0.5965740323047375,0.06544722395460359
0.06544722395460359,-0.25235582791351735
-0.25235582791351735,0.36594573713479955
0.36594573713479955,0.276259548941634
0.276259548941634,-0.5250463237604955
-0.5250463237604955,-0.641492957076119
-0.641492957076119,-0.48899419546795436
-0.48899419546795436,0.11800794749010349
0.11800794749010349,-0.24619786983582775
-0.24619786983582775,-0.5339964634637343
-0.5339964634637343,0.4116071969831616
0.4116071969831616,-0.17843078981023328
-0.17843078981023328,-0.3796743999705995
-0.3796743999705995,-0.019810771363288404
-0.019810771363288404,0.063920977367205
0.063920977367205,-0.20597705500970426
-0.20597705500970426,-0.8920850102249298
-0.8920850102249298,-0.6865785372095377
-0.6865785372095377,-1.7918734196318122
-1.7918734196318122,0.7490628796665293
0.7490628796665293,0.1951401326391056
0.1951401326391056,0.40777888537627666
0.40777888537627666,-0.5102935152552704
-0.5102935152552704,0.17879037510013865
0.17879037510013865,-0.0027106221256313484
-0.0027106221256313484,1.1387513292937972
1.1387513292937972,-0.7587623348428779
-0.7587623348428779,-0.1719323204448747
-0.1719323204448747,0.14321447698378645
0.14321447698378645,-0.21701224805329625
-0.21701224805329625,0.15817199490898706
0.15817199490898706,0.7832701879287411
0.7832701879287411,0.10692544442441314
0.10692544442441314,-0.34663477624272027
-0.34663477624272027,-3.599216362668831
-3.599216362668831,-0.13859320539962305
-0.13859320539962305,0.6834625441372806
0.6834625441372806,0.5795469092867465
0.5795469092867465,0.4885991581550519
0.4885991581550519,0.20513339857808965
0.20513339857808965,-0.7619138210989927
-0.7619138210989927,-0.6492925168532636
-0.6492925168532636,0.46399426988223746
0.46399426988223746,0.04101482243998491
0.04101482243998491,0.33169820157350705
0.33169820157350705,0.01951962864014281
0.01951962864014281,-0.6688828584934673
-0.6688828584934673,0.15277431079887818
0.15277431079887818,0.3510344537807155
0.3510344537807155,0.8006883629749356
0.8006883629749356,0.6836359158693193
0.6836359158693193,0.2403966898311803
0.2403966898311803,-0.21022106256374096
-0.21022106256374096,-0.13274320990401647
-0.13274320990401647,-0.5263159156536558
-0.5263159156536558,-0.14329243493552477
-0.14329243493552477,-0.9181437719334328
-0.9181437719334328,-0.758955315539681
-0.758955315539681,0.0064171072324282034
0.0064171072324282034,-0.13070991844109447
-0.13070991844109447,-0.11138001590229717
-0.11138001590229717,-0.35007078242732126
-0.35007078242732126,-0.5668724128500081
-0.5668724128500081,0.19378414774638061
0.19378414774638061,-1.3476912949679256
-1.3476912949679256,-0.809308786455144
-0.809308786455144,-0.03307117474172682
-0.03307117474172682,-1.4298016294337803
-1.4298016294337803,-2.0435614974726817
-2.0435614974726817,0.3232328895822747
0.3232328895822747,1.887912119903204
1.887912119903204,-0.1897905546860424
-0.1897905546860424,-0.5781968025933352
-0.5781968025933352,-0.41301088395929186
-0.41301088395929186,-0.431200519941788
-0.431200519941788,-0.32750166118982077
-0.32750166118982077,-1.0098907199690756
-1.0098907199690756,0.8447749085263467
0.8447749085263467,-0.07208461646028289
-0.07208461646028289,-0.9352643537272878
-0.9352643537272878,-0.3795150937985806
-0.3795150937985806,1.169838560299414
1.169838560299414,-0.3050542942970456
-0.3050542942970456,0.020290682583951683
0.020290682583951683,-0.2571175100989748
-0.2571175100989748,-0.08622132903077408
-0.08622132903077408,-0.3873164153383865
-0.3873164153383865,0.3586410807791321
0.3586410807791321,0.3951569087170986
0.3951569087170986,0.3966267078265028
0.3966267078265028,1.275576156100801
1.275576156100801,0.2297411419955759
0.2297411419955759,1.1996164798448026
1.1996164798448026,0.4836222644236123
0.4836222644236123,0.8295630344309285
0.8295630344309285,0.8016867226334967
0.8016867226334967,0.4008339106270517
0.4008339106270517,-1.1818864901552526
-1.1818864901552526,0.3623652040067564
0.3623652040067564,0.08592526859583394
0.08592526859583394,1.6770617628370428
1.6770617628370428,-1.4547683719319824
-1.4547683719319824,-0.9972403467624156
-0.9972403467624156,0.7671151454997515
0.7671151454997515,0.6081294654310692
0.6081294654310692,-0.054527077149811316
-0.054527077149811316,-0.6490652624350078
-0.6490652624350078,-0.9446064808322621
-0.9446064808322621,0.6598461965059595
0.6598461965059595,-0.1228536767262497
-0.1228536767262497,0.22303894057754114
0.22303894057754114,-0.3676683837190124
-0.3676683837190124,-0.33668785647757205
-0.33668785647757205,-0.5006279273187588
-0.5006279273187588,0.14844569240043148
0.14844569240043148,-0.6348712451185249
-0.6348712451185249,0.7475319034676811
0.7475319034676811,0.4344816071168878
0.4344816071168878,0.736823037545701
0.736823037545701,0.19957032694940247
0.19957032694940247,-0.41208361296680684
-0.41208361296680684,-0.06233224302218752
-0.06233224302218752,0.004760181988172773
0.004760181988172773,-0.6122231160180347
-0.6122231160180347,-0.34982466466351414
-0.34982466466351414,0.3415172584021274
0.3415172584021274,0.2868912785324837
0.2868912785324837,0.40424613429179324
0.40424613429179324,0.4269535132611059
0.4269535132611059,0.5918140533916917
0.5918140533916917,0.7757367591568477
0.7757367591568477,0.4662799119048193
0.4662799119048193,-0.26927277421763923
-0.26927277421763923,-0.9462118391278825
-0.9462118391278825,0.19116390265959313
0.19116390265959313,-0.7035877738562865
-0.7035877738562865,0.258995430593506
0.258995430593506,0.17605583352152285
0.17605583352152285,0.6490565661675904
0.6490565661675904,1.1369906963950227
1.1369906963950227,-0.9450104954167493
-0.9450104954167493,-0.6507792407679054
-0.6507792407679054,-0.013390354577402817
-0.013390354577402817,0.3376818244569653
0.3376818244569653,0.20062826153436758
0.20062826153436758,0.30729380593934585
0.30729380593934585,0.801127000569381
0.801127000569381,-0.27964300363827055
-0.27964300363827055,0.14095902873430294
0.14095902873430294,0.9875278091009382
0.9875278091009382,-0.6090063264313266
-0.6090063264313266,-0.2852654201559475
-0.2852654201559475,1.389800834191393
1.389800834191393,-0.8258792317201687
-0.8258792317201687,-0.7301223178760444
-0.7301223178760444,-0.16615480701822768
-0.16615480701822768,0.36588747787925646
0.36588747787925646,-0.1820481169887835
-0.1820481169887835,0.29759995500982245
0.29759995500982245,-1.1163608831200182
-1.1163608831200182,0.4374086683035039
0.4374086683035039,-0.18851307163466138
-0.18851307163466138,0.09743686867808597
0.09743686867808597,-0.7517792275096292
-0.7517792275096292,-0.22638613145468023
-0.22638613145468023,0.09271765851153763
0.09271765851153763,0.19470157430532592
0.19470157430532592,0.2791579800031853
0.2791579800031853,-0.3484594588547133
