log_returns,log_returns_norm,out_log_returns,out_log_returns_norm,bin_output
-0.026145272615756953,-1.6147552817294042,-0.00246411748993687,-0.16154882142776927,0
-0.00246411748993687,-0.16154882142776927,0.004431049046782508,0.2615766765801853,1
0.004431049046782508,0.2615766765801853,0.026268617850315763,1.6016504987382585,1
0.026268617850315763,1.6016504987382585,-0.01273959934460624,-0.7921091355079145,0
-0.01273959934460624,-0.7921091355079145,-0.003177272955600357,-0.2053119792803029,0
-0.003177272955600357,-0.2053119792803029,0.003265405267601593,0.19004633689379063,1
0.003265405267601593,0.19004633689379063,-8.81323120012946e-05,-0.015745249270419273,0
-8.81323120012946e-05,-0.015745249270419273,-0.0033983053450297725,-0.21887574737134993,0
-0.0033983053450297725,-0.21887574737134993,0.018310590502356224,1.1133019915869884,1
0.018310590502356224,1.1133019915869884,-0.00968298741641186,-0.6045385471186673,0
-0.00968298741641186,-0.6045385471186673,-0.0005699593837484461,-0.045312819335772324,0
-0.0005699593837484461,-0.045312819335772324,0.014454547842378707,0.8766739185514687,1
0.014454547842378707,0.8766739185514687,-0.015419804246170262,-0.956581309993958,0
-0.015419804246170262,-0.956581309993958,4.3938131902388675e-05,-0.007640677458950647,1
4.3938131902388675e-05,-0.007640677458950647,-0.00819785345121611,-0.5134025251987437,0
-0.00819785345121611,-0.5134025251987437,-0.01885247305249562,-1.1672288252407534,0
-0.01885247305249562,-1.1672288252407534,0.017745470072009616,1.0786230810412474,1
0.017745470072009616,1.0786230810412474,-0.01261748724990642,-0.7846156629996727,0
-0.01261748724990642,-0.7846156629996727,0.0038064166491758133,0.22324578306198692,1
0.0038064166491758133,0.22324578306198692,0.014069416297731636,0.8530401200406501,1
0.014069416297731636,0.8530401200406501,0.0024210557125324693,0.13823238518155254,1
0.0024210557125324693,0.13823238518155254,0.012756270216295286,0.7724582244901899,1
0.012756270216295286,0.7724582244901899,0.002124778015543595,0.12005114946817799,1
0.002124778015543595,0.12005114946817799,-0.017654685152513127,-1.0937259447825347,0
-0.017654685152513127,-1.0937259447825347,0.006240947294665182,0.37264202843221533,1
0.006240947294665182,0.37264202843221533,-8.764961740143988e-05,-0.01571562846403822,0
-8.764961740143988e-05,-0.01571562846403822,0.020857114048518574,1.2695707398356109,1
0.020857114048518574,1.2695707398356109,0.015922028435829263,0.9667266320884217,1
0.015922028435829263,0.9667266320884217,-0.0038931882306083377,-0.24924449427556503,0
-0.0038931882306083377,-0.24924449427556503,0.0016522250790664977,0.09105269156042654,1
0.0016522250790664977,0.09105269156042654,-0.003137347231666998,-0.20286191636555445,0
-0.003137347231666998,-0.20286191636555445,0.004829082926776421,0.28600223364245086,1
0.004829082926776421,0.28600223364245086,-0.0006340494154308893,-0.049245737624049345,0
-0.0006340494154308893,-0.049245737624049345,0.0011832768718633671,0.06227543974843922,1
0.0011832768718633671,0.06227543974843922,-0.0046567102092481055,-0.2960984195189255,0
-0.0046567102092481055,-0.2960984195189255,0.0007210798425985217,0.03391247749886706,1
0.0007210798425985217,0.03391247749886706,-0.0019523432791344586,-0.13014352952361938,0
-0.0019523432791344586,-0.13014352952361938,0.009808111333555728,0.5915429139139111,1
0.009808111333555728,0.5915429139139111,-0.013383241120215973,-0.8316065494417582,0
-0.013383241120215973,-0.8316065494417582,0.0034051410676151734,0.19862129728893393,1
0.0034051410676151734,0.19862129728893393,0.00046730225332725046,0.01833928310655953,1
0.00046730225332725046,0.01833928310655953,-0.014890505505668911,-0.9241006161663403,0
-0.014890505505668911,-0.9241006161663403,0.001378503941276663,0.07425565089058182,1
0.001378503941276663,0.07425565089058182,-0.020089358122438485,-1.2431309239661577,0
-0.020089358122438485,-1.2431309239661577,-0.010997154192427465,-0.6851830781254086,0
-0.010997154192427465,-0.6851830781254086,0.019874046560289346,1.2092442896596403,1
0.019874046560289346,1.2092442896596403,-0.007823266157745272,-0.49041578017188464,0
-0.007823266157745272,-0.49041578017188464,0.009476252239555364,0.5711782071777368,1
0.009476252239555364,0.5711782071777368,-0.012332370172433941,-0.7671193045355718,0
-0.012332370172433941,-0.7671193045355718,0.010418150322986347,0.6289782753127253,1
0.010418150322986347,0.6289782753127253,-0.015225941845775356,-0.9446848424793184,0
-0.015225941845775356,-0.9446848424793184,0.012697046515401938,0.7688239311339782,1
0.012697046515401938,0.7688239311339782,-0.011548153273273886,-0.7189954246791139,0
-0.011548153273273886,-0.7189954246791139,-0.004159977615496562,-0.2656161643059999,0
-0.004159977615496562,-0.2656161643059999,-0.013528496078437294,-0.8405201958646861,0
-0.013528496078437294,-0.8405201958646861,-0.005228079496849326,-0.33116079445581037,0
-0.005228079496849326,-0.33116079445581037,0.007473152438978286,0.448256941075574,1
0.007473152438978286,0.448256941075574,0.006838773943782118,0.4093279731853906,1
0.006838773943782118,0.4093279731853906,0.004666309806271114,0.27601357603580134,1
0.004666309806271114,0.27601357603580134,-0.004799949536868668,-0.30488837571664945,0
-0.004799949536868668,-0.30488837571664945,-0.003928247467419246,-0.25139592266477,0
-0.003928247467419246,-0.25139592266477,0.002858418137781347,0.16507135897687533,1
0.002858418137781347,0.16507135897687533,0.0030281136568038373,0.17548481318624562,1
0.0030281136568038373,0.17548481318624562,0.005454244901374738,0.3243656249295023,1
0.005454244901374738,0.3243656249295023,0.009725653482367425,0.5864828447824529,1
0.009725653482367425,0.5864828447824529,0.00506729929038571,0.3006205052895605,1
0.00506729929038571,0.3006205052895605,0.00039206403869110486,0.013722250745177982,1
0.00039206403869110486,0.013722250745177982,-0.007124889120539677,-0.44755950830502234,0
-0.007124889120539677,-0.44755950830502234,-0.003031447633776644,-0.19636333219683652,0
-0.003031447633776644,-0.19636333219683652,-0.002290667789728685,-0.15090498992796664,0
-0.002290667789728685,-0.15090498992796664,-0.0006176080550117272,-0.04823680494951004,0
-0.0006176080550117272,-0.04823680494951004,0.004710621232391747,0.2787327698572832,1
0.004710621232391747,0.2787327698572832,-0.0027708311877594053,-0.18037046778625856,0
-0.0027708311877594053,-0.18037046778625856,-0.002866951614830143,-0.18626894802693944,0
-0.002866951614830143,-0.18626894802693944,-0.0022994129485577122,-0.15144164116981632,0
-0.0022994129485577122,-0.15144164116981632,-0.011442976707494796,-0.7125412097537673,0
-0.011442976707494796,-0.7125412097537673,-0.011077164034973351,-0.6900929239271713,0
-0.011077164034973351,-0.6900929239271713,-0.0004076519906785978,-0.035352741336593545,0
-0.0004076519906785978,-0.035352741336593545,0.006366732659021374,0.38036091305260744,1
0.006366732659021374,0.38036091305260744,-0.002749424201615525,-0.17905681689403685,0
-0.002749424201615525,-0.17905681689403685,0.013404990978558259,0.8122673130943382,1
0.013404990978558259,0.8122673130943382,0.002135308100734469,0.12069733364904257,1
0.002135308100734469,0.12069733364904257,-0.015450014868875895,-0.958435200644659,0
-0.015450014868875895,-0.958435200644659,0.002118889125517881,0.11968977465415792,1
0.002118889125517881,0.11968977465415792,0.012797742983962286,0.7750032225521535,1
0.012797742983962286,0.7750032225521535,0.01823999519066052,1.108969873390974,1
0.01823999519066052,1.108969873390974,-0.007537619290429514,-0.4728869108771776,0
-0.007537619290429514,-0.4728869108771776,-0.012571527135962284,-0.781795296588281,0
-0.012571527135962284,-0.781795296588281,0.0040453872971759645,0.23791034176493836,1
0.0040453872971759645,0.23791034176493836,0.014971698316665834,0.9084091276740466,1
0.014971698316665834,0.9084091276740466,0.012595145423425179,0.7625707173703067,1
0.012595145423425179,0.7625707173703067,-0.003328815687553037,-0.21461147822430834,0
-0.003328815687553037,-0.21461147822430834,-0.004078748978138127,-0.26063152652361093,0
-0.004078748978138127,-0.26063152652361093,-0.004619605625095681,-0.29382147732118963,0
-0.004619605625095681,-0.29382147732118963,0.0013095997128863162,0.07002730690537753,1
0.0013095997128863162,0.07002730690537753,-0.00017448316562976076,-0.021044214531139523,0
-0.00017448316562976076,-0.021044214531139523,-0.010835583197081609,-0.6752681895574113,0
-0.010835583197081609,-0.6752681895574113,0.010617386475259252,0.6412045059197341,1
0.010617386475259252,0.6412045059197341,0.0029632578970401574,0.17150490559408646,1
0.0029632578970401574,0.17150490559408646,-0.004054889560872249,-0.25916738091392305,0
-0.004054889560872249,-0.25916738091392305,0.0006114578728605621,0.027185468036372507,1
0.0006114578728605621,0.027185468036372507,-0.0034114745357681974,-0.21968388164336258,0
-0.0034114745357681974,-0.21968388164336258,0.007594334126401323,0.45569331865503604,1
0.007594334126401323,0.45569331865503604,-0.005318702897995243,-0.3367219468278146,0
-0.005318702897995243,-0.3367219468278146,-0.0006121530005164617,-0.04790205267954268,0
-0.0006121530005164617,-0.04790205267954268,-0.002320841654556178,-0.1527566249122657,0
-0.002320841654556178,-0.1527566249122657,0.0050289550881630505,0.298267493281108,1
0.0050289550881630505,0.298267493281108,0.01140690639245498,0.6896538082493607,1
0.01140690639245498,0.6896538082493607,0.009058385348832387,0.5455355870471549,1
0.009058385348832387,0.5455355870471549,-0.0031675631504084574,-0.20471613201026181,0
-0.0031675631504084574,-0.20471613201026181,-0.010299370896870176,-0.6423632415250898,0
-0.010299370896870176,-0.6423632415250898,0.004925902835727049,0.2919436379542473,1
0.004925902835727049,0.2919436379542473,0.005759230035094869,0.3430811970484829,1
0.005759230035094869,0.3430811970484829,0.009723715393316932,0.586363912935005,1
0.009723715393316932,0.586363912935005,-0.004338354858656483,-0.2765623770542184,0
-0.004338354858656483,-0.2765623770542184,0.00738946847971502,0.4431216311813196,1
0.00738946847971502,0.4431216311813196,0.0010149941414954755,0.05194868205319569,1
0.0010149941414954755,0.05194868205319569,-0.0027088790960069996,-0.17656874529909683,0
-0.0027088790960069996,-0.17656874529909683,-0.0019515797448340592,-0.1300966748422448,0
-0.0019515797448340592,-0.1300966748422448,0.0022905992832817695,0.13022685822276422,1
0.0022905992832817695,0.13022685822276422,-0.026011155348822382,-1.6065251055529552,0
-0.026011155348822382,-1.6065251055529552,-0.0022638418989210755,-0.14925880511908207,0
-0.0022638418989210755,-0.14925880511908207,0.015396885513727539,0.934500962228769,1
0.015396885513727539,0.934500962228769,-0.005077213510680839,-0.321902824370526,0
-0.005077213510680839,-0.321902824370526,-0.007012757024222034,-0.44067846361314855,0
-0.007012757024222034,-0.44067846361314855,-0.00034759225425424274,-0.03166714422310123,0
-0.00034759225425424274,-0.03166714422310123,-0.017181340585937455,-1.0646789080800705,0
-0.017181340585937455,-1.0646789080800705,-0.004075482639532657,-0.2604310859480654,0
-0.004075482639532657,-0.2604310859480654,0.019865311143641737,1.2087082362518446,1
0.019865311143641737,1.2087082362518446,0.01408654197496106,0.8540910461738819,1
0.01408654197496106,0.8540910461738819,0.009225330942837187,0.5557802906706766,1
0.009225330942837187,0.5557802906706766,-0.005371062341043349,-0.33993501141402394,0
-0.005371062341043349,-0.33993501141402394,-0.04511257584219553,-2.7786937567199077,0
-0.04511257584219553,-2.7786937567199077,-0.00017884485174947816,-0.021311871679336247,0
-0.00017884485174947816,-0.021311871679336247,-0.00853366572051794,-0.5340098206032611,0
-0.00853366572051794,-0.5340098206032611,-0.024104147174158395,-1.4895005522933826,0
-0.024104147174158395,-1.4895005522933826,-0.0011095955749791699,-0.0784278762298519,0
-0.0011095955749791699,-0.0784278762298519,-0.02302178371476658,-1.423080752953964,0
-0.02302178371476658,-1.423080752953964,-0.022789163992015637,-1.4088059220979865,0
-0.022789163992015637,-1.4088059220979865,-0.008364186215463396,-0.5236096222039248,0
-0.008364186215463396,-0.5236096222039248,0.04329182851957471,2.6462887179554526,1
0.04329182851957471,2.6462887179554526,0.015314249287640757,0.9294299470284453,1
0.015314249287640757,0.9294299470284453,-0.00046066657594168647,-0.03860600906720913,0
-0.00046066657594168647,-0.03860600906720913,-0.0012909120611330578,-0.08955445716047267,0
-0.0012909120611330578,-0.08955445716047267,-0.004716720946518157,-0.2997810097737066,0
-0.004716720946518157,-0.2997810097737066,-0.012406313767174881,-0.7716568918705029,0
-0.012406313767174881,-0.7716568918705029,0.0004691542619489625,0.0184529325835089,1
0.0004691542619489625,0.0184529325835089,-0.0130313202257832,-0.8100107398375539,0
-0.0130313202257832,-0.8100107398375539,-0.012336989375796933,-0.767402764363983,0
-0.012336989375796933,-0.767402764363983,0.02555596694497577,1.5579183034936643,1
0.02555596694497577,1.5579183034936643,-0.020851830311136375,-1.2899204283011043,0
-0.020851830311136375,-1.2899204283011043,-0.0036461840276761823,-0.23408695227579596,0
-0.0036461840276761823,-0.23408695227579596,-0.004914509023943452,-0.3119183785109136,0
-0.004914509023943452,-0.3119183785109136,0.011334290404136737,0.6851976901763787,1
0.011334290404136737,0.6851976901763787,-0.004211288899438048,-0.2687649080608532,0
-0.004211288899438048,-0.2687649080608532,0.002968900862696103,0.1718511891306332,1
0.002968900862696103,0.1718511891306332,-0.01999390211364707,-1.237273216100419,0
-0.01999390211364707,-1.237273216100419,-0.025993430821847532,-1.6054374306921306,0
-0.025993430821847532,-1.6054374306921306,-0.026995790341674507,-1.6669477464693032,0
-0.026995790341674507,-1.6669477464693032,-0.05226287613080662,-3.2174756707481174,0
-0.05226287613080662,-3.2174756707481174,-0.01320186159313397,-0.8204760999716377,0
-0.01320186159313397,-0.8204760999716377,0.022265328202344243,1.355986537331756,1
0.022265328202344243,1.355986537331756,0.02220075201758662,1.352023786005952,1
0.02220075201758662,1.352023786005952,0.009618455274814034,0.5799045707530965,1
0.009618455274814034,0.5799045707530965,-0.008568492217847444,-0.5361469668125577,0
-0.008568492217847444,-0.5361469668125577,-0.042226616847537375,-2.6015953747820206,0
-0.042226616847537375,-2.6015953747820206,0.023583961274638496,1.4369051449437669,1
0.023583961274638496,1.4369051449437669,0.004799801999329641,0.28420539422717717,1
0.004799801999329641,0.28420539422717717,-0.007154772312863219,-0.4493933060192081,0
-0.007154772312863219,-0.4493933060192081,0.03257896036365398,1.9888879649166145,1
0.03257896036365398,1.9888879649166145,-0.003116917346904777,-0.20160822581026108,0
-0.003116917346904777,-0.20160822581026108,0.005603427772566404,0.3335203097846216,1
0.005603427772566404,0.3335203097846216,0.0008274910567564331,0.040442457267219366,1
0.0008274910567564331,0.040442457267219366,-0.026824717083106176,-1.6564497465526822,0
-0.026824717083106176,-1.6564497465526822,0.001273563275863262,0.06781591211445971,1
0.001273563275863262,0.06781591211445971,0.008344394040633444,0.5017211372806134,1
0.008344394040633444,0.5017211372806134,-0.006437004385179262,-0.40534710202427016,0
-0.006437004385179262,-0.40534710202427016,-0.013536008780027814,-0.8409812167240004,0
-0.013536008780027814,-0.8409812167240004,0.0027860552492665375,0.16063077250560343,1
0.0027860552492665375,0.16063077250560343,-0.01977688280841665,-1.2239557130185208,0
-0.01977688280841665,-1.2239557130185208,-0.018506809949176667,-1.1460170282586322,0
-0.018506809949176667,-1.1460170282586322,-0.020556767681601005,-1.2718137558370204,0
-0.020556767681601005,-1.2718137558370204,0.00260692390787369,0.14963828412522218,1
0.00260692390787369,0.14963828412522218,-0.044323068879433124,-2.730245249345852,0
-0.044323068879433124,-2.730245249345852,0.016895800488425455,1.0264826629988846,1
0.016895800488425455,1.0264826629988846,0.020042199309935504,1.2195630710199654,1
0.020042199309935504,1.2195630710199654,0.02744514646216292,1.6738487918697382,1
0.02744514646216292,1.6738487918697382,0.02768387741575366,1.6884986415999896,1
0.02768387741575366,1.6884986415999896,0.020614803998959496,1.2547012570107916,1
0.020614803998959496,1.2547012570107916,-0.012660361937640216,-0.7872466906191925,0
-0.012660361937640216,-0.7872466906191925,0.009695841096928334,0.5846533921697359,1
0.009695841096928334,0.5846533921697359,0.015362245812731747,0.9323752788741121,1
0.015362245812731747,0.9323752788741121,0.00208620686767846,0.11768421082177094,1
0.00208620686767846,0.11768421082177094,0.014174311434304199,0.8594770649156603,1
0.014174311434304199,0.8594770649156603,-0.0016450346654013413,-0.1112853758393683,0
-0.0016450346654013413,-0.1112853758393683,0.0014395826614529987,0.07800377847454541,1
0.0014395826614529987,0.07800377847454541,0.019738176901334233,1.2009065770310334,1
0.019738176901334233,1.2009065770310334,0.014800227431260337,0.8978867271787591,1
0.014800227431260337,0.8978867271787591,0.004358192767837733,0.25710581294732787,1
0.004358192767837733,0.25710581294732787,0.001974694072294248,0.11084116985532995,1
0.001974694072294248,0.11084116985532995,-0.007326019064822602,-0.45990195244844045,0
-0.007326019064822602,-0.45990195244844045,0.029180601005505673,1.7803458668876604,1
0.029180601005505673,1.7803458668876604,0.003564332236553609,0.20839014656571905,1
0.003564332236553609,0.20839014656571905,-0.0005771215927990076,-0.045752332037201256,0
-0.0005771215927990076,-0.045752332037201256,-0.009668450033334481,-0.6036464530087439,0
-0.009668450033334481,-0.6036464530087439,0.013509821527128624,0.8187002944928392,1
0.013509821527128624,0.8187002944928392,-0.00047939267119630555,-0.03975514568895126,0
-0.00047939267119630555,-0.03975514568895126,-0.00019177752987328765,-0.022105492231149205,0
-0.00019177752987328765,-0.022105492231149205,-0.002496900688041043,-0.16356057951225514,0
-0.002496900688041043,-0.16356057951225514,0.0018252797149705287,0.10167227973274026,1
0.0018252797149705287,0.10167227973274026,-0.0031723345634942705,-0.20500893226786038,0
-0.0031723345634942705,-0.20500893226786038,-0.0062781055855363355,-0.395596194142099,0
-0.0062781055855363355,-0.395596194142099,-0.002036750477676722,-0.13532322137420144,0
-0.002036750477676722,-0.13532322137420144,-0.012406710425516818,-0.7716812330169533,0
-0.012406710425516818,-0.7716812330169533,-0.006014320243961633,-0.37940886879954117,0
-0.006014320243961633,-0.37940886879954117,0.004834003944438653,0.28630421446306614,1
0.004834003944438653,0.28630421446306614,-0.02390315507096104,-1.4771665668402176,0
-0.02390315507096104,-1.4771665668402176,0.016197142131309045,0.9836091277886745,1
0.016197142131309045,0.9836091277886745,0.011046518521652112,0.6675384182152801,1
0.011046518521652112,0.6675384182152801,-0.0023568494504417354,-0.15496626212481288,0
-0.0023568494504417354,-0.15496626212481288,0.024474410322056543,1.491548016096047,1
0.024474410322056543,1.491548016096047,-0.00828521680741995,-0.5187636232091457,0
-0.00828521680741995,-0.5187636232091457,0.012019953044608414,0.7272737364429948,1
0.012019953044608414,0.7272737364429948,0.008091799667060074,0.48622055153796784,1
0.008091799667060074,0.48622055153796784,0.00018957758070791667,0.0012965634296157299,1
0.00018957758070791667,0.0012965634296157299,0.009153177701713007,0.5513525693210946,1
0.009153177701713007,0.5513525693210946,-0.002351061431405377,-0.1546110773117708,0
-0.002351061431405377,-0.1546110773117708,-0.004435027108842673,-0.2824947202087672,0
-0.004435027108842673,-0.2824947202087672,0.00960011394134305,0.5787790452392876,1
0.00960011394134305,0.5787790452392876,-0.013390165255393752,-0.832031452615564,0
-0.013390165255393752,-0.832031452615564,-0.009921788024432734,-0.6191926712294258,0
-0.009921788024432734,-0.6191926712294258,0.01579026449740896,0.9586408691461236,1
0.01579026449740896,0.9586408691461236,-0.00919656858369838,-0.5746892012419158,0
-0.00919656858369838,-0.5746892012419158,-0.021566233803515675,-1.333760171965285,0
-0.021566233803515675,-1.333760171965285,-0.0117475352981753,-0.7312306068362057,0
-0.0117475352981753,-0.7312306068362057,-0.006619653647734572,-0.41655546947528627,0
-0.006619653647734572,-0.41655546947528627,-0.02154277880592591,-1.3323208437803755,0
-0.02154277880592591,-1.3323208437803755,-0.010180276924704842,-0.6350549776834774,0
-0.010180276924704842,-0.6350549776834774,0.008355455865518837,0.5023999519457245,1
0.008355455865518837,0.5023999519457245,0.016803717146490833,1.020831920597402,1
0.016803717146490833,1.020831920597402,-0.019954339057998323,-1.23484540851449,0
-0.019954339057998323,-1.23484540851449,-0.020048961893601388,-1.240651988272101,0
-0.020048961893601388,-1.240651988272101,0.00971485958704939,0.5858204717552654,1
0.00971485958704939,0.5858204717552654,0.015613345760239044,0.9477841583802114,1
0.015613345760239044,0.9477841583802114,0.014874603169152768,0.9024508332040238,1
0.014874603169152768,0.9024508332040238,0.0014953053469763038,0.08142323019290913,1
0.0014953053469763038,0.08142323019290913,-0.004892893695059941,-0.3105919425575924,0
-0.004892893695059941,-0.3105919425575924,0.0067837480202057095,0.40595127862803293,1
0.0067837480202057095,0.40595127862803293,-0.00808594567008473,-0.5065352457255043,0
-0.00808594567008473,-0.5065352457255043,-0.009567492949286388,-0.5974511687849628,0
-0.009567492949286388,-0.5974511687849628,-0.008740787591368857,-0.5467199624519641,0
-0.008740787591368857,-0.5467199624519641,0.0035665038070433197,0.20852340612370435,1
0.0035665038070433197,0.20852340612370435,-0.01889363470891059,-1.1697547317981465,0
-0.01889363470891059,-1.1697547317981465,-0.012727077829358885,-0.7913407461808929,0
-0.012727077829358885,-0.7913407461808929,-0.008011027820282011,-0.5019378727195519,0
-0.008011027820282011,-0.5019378727195519,-0.0004234245498393375,-0.03632063267238762,0
-0.0004234245498393375,-0.03632063267238762,0.007068719620753223,0.42343870982460563,1
0.007068719620753223,0.42343870982460563,-0.02200226537221597,-1.360517477052985,0
-0.02200226537221597,-1.360517477052985,0.005572800141124843,0.33164082917490734,1
0.005572800141124843,0.33164082917490734,-0.018008770061022198,-1.1154545502414661,0
-0.018008770061022198,-1.1154545502414661,-0.003269790943311174,-0.21098939394699182,0
-0.003269790943311174,-0.21098939394699182,0.02074402624643965,1.2626310477602347,1
0.02074402624643965,1.2626310477602347,-0.01725666764804733,-1.06930139261311,0
-0.01725666764804733,-1.06930139261311,0.013399870705619698,0.8119531048695581,1
0.013399870705619698,0.8119531048695581,-0.022250909901200346,-1.3757756785181994,0
-0.022250909901200346,-1.3757756785181994,0.01600558095637519,0.9718538761770954,1
0.01600558095637519,0.9718538761770954,0.002373517296270819,0.13531516542361025,1
0.002373517296270819,0.13531516542361025,-0.007680352710835111,-0.48164582181426296,0
-0.007680352710835111,-0.48164582181426296,0.0323729612908021,1.9762467241539081,1
0.0323729612908021,1.9762467241539081,0.004928892507637264,0.2921271007334497,1
0.004928892507637264,0.2921271007334497,-0.02703865571452306,-1.6695782024760222,0
-0.02703865571452306,-1.6695782024760222,0.022004604861060092,1.3399871132372592,1
0.022004604861060092,1.3399871132372592,0.00618414365849508,0.36915624361249544,1
0.00618414365849508,0.36915624361249544,-0.030017571207714436,-1.8523809085263852,0
-0.030017571207714436,-1.8523809085263852,-0.03528747829085517,-2.175771510788835,0
-0.03528747829085517,-2.175771510788835,0.014836369819416786,0.9001046237163488,1
0.014836369819416786,0.9001046237163488,0.00383918077273158,0.22525637062684128,1
0.00383918077273158,0.22525637062684128,-0.022923320076695206,-1.417038480345644,0
-0.022923320076695206,-1.417038480345644,0.027728948079374705,1.6912644264274692,1
0.027728948079374705,1.6912644264274692,0.019849669543110637,1.2077483812607988,1
0.019849669543110637,1.2077483812607988,0.014632826391060156,0.8876140748614372,1
0.014632826391060156,0.8876140748614372,-0.0032684678219849373,-0.21090819991533102,0
-0.0032684678219849373,-0.21090819991533102,0.009878125861970188,0.5958393920403489,1
0.009878125861970188,0.5958393920403489,0.011333669287011109,0.6851595749993625,1
0.011333669287011109,0.6851595749993625,-0.019312656571745045,-1.1954682273959492,0
-0.019312656571745045,-1.1954682273959492,0.008501731036075688,0.5113762042317953,1
0.008501731036075688,0.5113762042317953,0.01380479460204865,0.8368014713911505,1
0.01380479460204865,0.8368014713911505,0.011784749716291568,0.7128403612812478,1
0.011784749716291568,0.7128403612812478,-0.016745009495526278,-1.037903222686049,0
-0.016745009495526278,-1.037903222686049,0.031107531387130096,1.8985929567889026,1
0.031107531387130096,1.8985929567889026,-0.0025137009404925547,-0.1645915357839201,0
-0.0025137009404925547,-0.1645915357839201,0.009718066732869199,0.5860172799345841,1
0.009718066732869199,0.5860172799345841,0.02159948660597647,1.3151268197952495,1
0.02159948660597647,1.3151268197952495,0.008549599150626233,0.5143136560975393,1
0.008549599150626233,0.5143136560975393,-0.018157474309919156,-1.1245798641893379,0
-0.018157474309919156,-1.1245798641893379,0.007556801647198779,0.4533901184539274,1
0.007556801647198779,0.4533901184539274,0.006140716945483271,0.36649134067329636,1
0.006140716945483271,0.36649134067329636,0.020200748627462812,1.2292925327494688,1
0.020200748627462812,1.2292925327494688,-0.0025745356052306887,-0.16832468677837265,0
-0.0025745356052306887,-0.16832468677837265,0.00019097157538665077,0.0013821066415916428,1
0.00019097157538665077,0.0013821066415916428,0.017505281656298433,1.063883793386291,1
0.017505281656298433,1.063883793386291,0.02583358224811438,1.574954311655266,1
0.02583358224811438,1.574954311655266,-0.004580859984927012,-0.2914438308633848,0
-0.004580859984927012,-0.2914438308633848,-9.185119790122645e-05,-0.015973460647195112,0
-9.185119790122645e-05,-0.015973460647195112,0.008686535366559235,0.5227168185524875,1
0.008686535366559235,0.5227168185524875,-0.006393271953603454,-0.40266343850561975,0
-0.006393271953603454,-0.40266343850561975,-0.0017424227857115104,-0.11726164873819589,0
-0.0017424227857115104,-0.11726164873819589,0.004121870555583945,0.24260377688805068,1
0.004121870555583945,0.24260377688805068,0.01063789785870156,0.6424631976841231,1
0.01063789785870156,0.6424631976841231,0.01195682715968622,0.723399983524533,1
0.01195682715968622,0.723399983524533,-0.0036707473352296303,-0.23559429248084054,0
-0.0036707473352296303,-0.23559429248084054,0.014425920320634476,0.8749171757186082,1
0.014425920320634476,0.8749171757186082,-0.008166917621151615,-0.5115041318194656,0
-0.008166917621151615,-0.5115041318194656,-0.006797290520541986,-0.42745624900989837,0
-0.006797290520541986,-0.42745624900989837,0.005816324568100043,0.34658483290451253,1
0.005816324568100043,0.34658483290451253,-0.01320241193357128,-0.8205098719001866,0
-0.01320241193357128,-0.8205098719001866,0.010969370981438693,0.6628042190920168,1
0.010969370981438693,0.6628042190920168,-0.0013422356669985174,-0.09270395705663019,0
-0.0013422356669985174,-0.09270395705663019,0.01121908411487975,0.6781279960281784,1
0.01121908411487975,0.6781279960281784,0.011357263271817264,0.6866074322074419,1
0.011357263271817264,0.6866074322074419,0.0024481849473028364,0.13989718485124228,1
0.0024481849473028364,0.13989718485124228,0.0073087973108569215,0.4381712027447924,1
0.0073087973108569215,0.4381712027447924,0.003461721574833251,0.20209338968390347,1
0.003461721574833251,0.20209338968390347,0.006887698699530424,0.4123302663904463,1
0.006887698699530424,0.4123302663904463,-0.004126936914581702,-0.2635886044269627,0
-0.004126936914581702,-0.2635886044269627,-0.05135222221527197,-3.1615929173045982,0
-0.05135222221527197,-3.1615929173045982,0.02622661167740668,1.5990727679848515,1
0.02622661167740668,1.5990727679848515,-0.005226142059159328,-0.3310419025794396,0
-0.005226142059159328,-0.3310419025794396,0.00840159327319401,0.5052311980795767,1
0.00840159327319401,0.5052311980795767,-0.004943995112674423,-0.313727807755611,0
-0.004943995112674423,-0.313727807755611,-0.0019489838385577873,-0.12993737569695513,0
-0.0019489838385577873,-0.12993737569695513,-0.021330771975016566,-1.3193109338047586,0
-0.021330771975016566,-1.3193109338047586,0.007670465660753344,0.46036517004764,1
0.007670465660753344,0.46036517004764,-0.01576546090541047,-0.9777927115318193,0
-0.01576546090541047,-0.9777927115318193,-0.008345260751933125,-0.5224482512437555,0
-0.008345260751933125,-0.5224482512437555,-9.204316367152464e-05,-0.01598524072701267,0
-9.204316367152464e-05,-0.01598524072701267,-0.0024897820342178042,-0.16312373960011325,0
-0.0024897820342178042,-0.16312373960011325,-0.008064888368312527,-0.5052430533974992,0
-0.008064888368312527,-0.5052430533974992,0.011935200945270124,0.7220728795748159,1
0.011935200945270124,0.7220728795748159,-0.012121408452129312,-0.7541735283183985,0
-0.012121408452129312,-0.7541735283183985,0.0006514326796505755,0.029638542946270736,1
0.0006514326796505755,0.029638542946270736,-0.007376670404795874,-0.46301019839679114,0
-0.007376670404795874,-0.46301019839679114,0.013590516446497359,0.8236521803918639,1
0.013590516446497359,0.8236521803918639,-0.010689338151098293,-0.666293785881539,0
-0.010689338151098293,-0.666293785881539,-0.00581072621046624,-0.36691521453384257,0
-0.00581072621046624,-0.36691521453384257,-0.0070745001400729975,-0.4444673621849054,0
-0.0070745001400729975,-0.4444673621849054,0.005381176062199543,0.31988171742701904,1
0.005381176062199543,0.31988171742701904,0.0020692372068626965,0.11664285871729918,1
0.0020692372068626965,0.11664285871729918,0.012419057005735703,0.7517649595932449,1
0.012419057005735703,0.7517649595932449,0.005183254420537426,0.3077361524506175,1
0.005183254420537426,0.3077361524506175,-0.005740250519995411,-0.36259043695680787,0
-0.005740250519995411,-0.36259043695680787,0.008321837622769184,0.5003369509101663,1
0.008321837622769184,0.5003369509101663,-0.00850752471886799,-0.5324056643754661,0
-0.00850752471886799,-0.5324056643754661,0.002782187148099315,0.16039340445596895,1
0.002782187148099315,0.16039340445596895,0.0020352823289791753,0.11455919989082218,1
0.0020352823289791753,0.11455919989082218,-0.004910361386142982,-0.31166385654969125,0
-0.004910361386142982,-0.31166385654969125,0.0041707699898838844,0.24560451622919408,1
0.0041707699898838844,0.24560451622919408,-0.003242451351650686,-0.2093116856168052,0
-0.003242451351650686,-0.2093116856168052,0.029080326413213727,1.7741924641271725,1
0.029080326413213727,1.7741924641271725,-0.004697783050337258,-0.298618875877434,0
-0.004697783050337258,-0.298618875877434,-0.01083456177244486,-0.6752055093007706,0
-0.01083456177244486,-0.6752055093007706,-0.014290525038641097,-0.8872825012514575,0
-0.014290525038641097,-0.8872825012514575,-0.0056805162594487455,-0.35892481284064687,0
-0.0056805162594487455,-0.35892481284064687,-0.004305098596935613,-0.2745215891736662,0
-0.004305098596935613,-0.2745215891736662,0.003183787079066124,0.18503779409983967,1
0.003183787079066124,0.18503779409983967,0.011341585030123395,0.6856453287122936,1
0.011341585030123395,0.6856453287122936,0.0022160476793787478,0.1256519600878504,1
0.0022160476793787478,0.1256519600878504,-0.003325951120801762,-0.21443569258856549,0
-0.003325951120801762,-0.21443569258856549,-0.002316209917284107,-0.15247239593397338,0
-0.002316209917284107,-0.15247239593397338,0.03113983682941622,1.900575397137934,1
0.03113983682941622,1.900575397137934,-0.07940601282957109,-4.8831284395392665,0
-0.07940601282957109,-4.8831284395392665,-0.04012057098337144,-2.4723567696870976,0
-0.04012057098337144,-2.4723567696870976,0.0187708910818393,1.1415485772045988,1
0.0187708910818393,1.1415485772045988,0.0190106719962781,1.1562628583310113,1
0.0190106719962781,1.1562628583310113,0.016066970357597653,0.9756210688658196,1
0.016066970357597653,0.9756210688658196,0.003546226177029231,0.20727905876059996,1
0.003546226177029231,0.20727905876059996,-0.01805325020497918,-1.118184097521149,0
-0.01805325020497918,-1.118184097521149,0.003112537193786402,0.1806655076537554,1
0.003112537193786402,0.1806655076537554,0.0005825005853418975,0.02540848895442504,1
0.0005825005853418975,0.02540848895442504,0.031433215425697505,1.9185787280212887,1
0.031433215425697505,1.9185787280212887,0.0027239101528327577,0.15681720618530304,1
0.0027239101528327577,0.15681720618530304,0.01941444436464363,1.1810405607311918,1
0.01941444436464363,1.1810405607311918,0.0070587842153800725,0.4228290184815412,1
0.0070587842153800725,0.4228290184815412,-0.007702963105661826,-0.48303332050922015,0
-0.007702963105661826,-0.48303332050922015,0.005874265699363668,0.35014042070511264,1
0.005874265699363668,0.35014042070511264,0.0002745702422272637,0.0065121825217552675,1
0.0002745702422272637,0.0065121825217552675,-0.008452878307604425,-0.5290522587895229,0
-0.008452878307604425,-0.5290522587895229,0.01510949999172633,0.916865399480651,1
0.01510949999172633,0.916865399480651,-0.013173756282923487,-0.8187514029224586,0
-0.013173756282923487,-0.8187514029224586,-0.008694050519806325,-0.5438519176302739,0
-0.008694050519806325,-0.5438519176302739,-0.009895573640740703,-0.6175840118742684,0
-0.009895573640740703,-0.6175840118742684,0.0015936802019001514,0.08746005457698236,1
0.0015936802019001514,0.08746005457698236,-0.006295588593689076,-0.39666904807418474,0
-0.006295588593689076,-0.39666904807418474,-0.00576636264189194,-0.3641928209634413,0
-0.00576636264189194,-0.3641928209634413,-0.007326777754480454,-0.45994850983579333,0
-0.007326777754480454,-0.45994850983579333,-0.00038208918271757415,-0.033784066266689276,0
-0.00038208918271757415,-0.033784066266689276,-0.009406824257767026,-0.5875916505628314,0
-0.009406824257767026,-0.5875916505628314,0.0061532679150539315,0.3672615374802607,1
0.0061532679150539315,0.3672615374802607,-0.0022070090673787283,-0.14577122871008652,0
-0.0022070090673787283,-0.14577122871008652,0.0031650324506524476,0.1838869065258803,1
0.0031650324506524476,0.1838869065258803,0.00047870424427901026,0.01903897224010741,1
0.00047870424427901026,0.01903897224010741,-0.001053393510257007,-0.07497900715642196,0
-0.001053393510257007,-0.07497900715642196,0.0030613215038225415,0.17752263007329744,1
0.0030613215038225415,0.17752263007329744,0.0004774428041842112,0.01896156330944901,1
0.0004774428041842112,0.01896156330944901,-0.007186348326297695,-0.4513309845855514,0
-0.007186348326297695,-0.4513309845855514,0.004509494114282487,0.266390499143489,1
0.004509494114282487,0.266390499143489,-0.007784360640526187,-0.48802832277532776,0
-0.007784360640526187,-0.48802832277532776,-0.0005790888851928441,-0.04587305596307548,0
-0.0005790888851928441,-0.04587305596307548,0.0017361145493845712,0.09620061274796131,1
0.0017361145493845712,0.09620061274796131,0.009208762570836316,0.5547635638640482,1
0.009208762570836316,0.5547635638640482,0.004572702280019534,0.2702693012671549,1
0.004572702280019534,0.2702693012671549,0.011623124928120444,0.7029221716884153,1
0.011623124928120444,0.7029221716884153,-0.0004698872550639966,-0.03917184086036772,0
-0.0004698872550639966,-0.03917184086036772,0.003378070317385418,0.19696008655364342,1
0.003378070317385418,0.19696008655364342,-0.009411834182346595,-0.5878990872028926,0
-0.009411834182346595,-0.5878990872028926,0.017342815620265937,1.053913980178801,1
0.017342815620265937,1.053913980178801,-0.002978405951894657,-0.19310840166804127,0
-0.002978405951894657,-0.19310840166804127,-0.013135876176376321,-0.8164268703876738,0
-0.013135876176376321,-0.8164268703876738,0.000944077321394566,0.047596834325872396,1
0.000944077321394566,0.047596834325872396,0.009952176193274404,0.600383529320267,1
0.009952176193274404,0.600383529320267,0.00540392464933385,0.32127769636515224,1
0.00540392464933385,0.32127769636515224,-0.008304217203934485,-0.5199295924710552,0
-0.008304217203934485,-0.5199295924710552,-0.013488864256965681,-0.838088168428099,0
-0.013488864256965681,-0.838088168428099,-0.04308002542143279,-2.653965237918867,0
-0.04308002542143279,-2.653965237918867,0.01866277033017157,1.1349136907735353,1
0.01866277033017157,1.1349136907735353,-0.015692735027299662,-0.9733298500142871,0
-0.015692735027299662,-0.9733298500142871,-0.004756284704662895,-0.3022088604686694,0
-0.004756284704662895,-0.3022088604686694,0.00554674127800525,0.3300417134209542,1
0.00554674127800525,0.3300417134209542,-0.010225939642116606,-0.6378570942012377,0
-0.010225939642116606,-0.6378570942012377,0.008644325700749364,0.5201266003508764,1
0.008644325700749364,0.5201266003508764,0.0017791870033528898,0.09884377639581726,1
0.0017791870033528898,0.09884377639581726,0.011780981937343173,0.712609149557001,1
0.011780981937343173,0.712609149557001,0.006614813129517916,0.3955845007739332,1
0.006614813129517916,0.3955845007739332,0.0012596024718216246,0.06695920007839047,1
0.0012596024718216246,0.06695920007839047,-0.011002469933073812,-0.6855092813282303,0
-0.011002469933073812,-0.6855092813282303,0.0030304296532701253,0.17562693551976205,1
0.0030304296532701253,0.17562693551976205,0.010872864757091103,0.6568820641998204,1
0.010872864757091103,0.6568820641998204,-0.014686857939680803,-0.9116036768512495,0
-0.014686857939680803,-0.9116036768512495,0.01265719422485461,0.7663783744973406,1
0.01265719422485461,0.7663783744973406,0.0007737121263543098,0.0371422850976926,1
0.0007737121263543098,0.0371422850976926,-0.013528838905361829,-0.8405412336180749,0
-0.013528838905361829,-0.8405412336180749,-0.004616235761549581,-0.2936146838835592,0
-0.004616235761549581,-0.2936146838835592,0.005987166116131201,0.3570686137829258,1
0.005987166116131201,0.3570686137829258,-0.08641550494164413,-5.313269586226474,0
-0.08641550494164413,-5.313269586226474,0.0012794022004926021,0.06817422077581888,1
0.0012794022004926021,0.06817422077581888,-0.016653572201547957,-1.032292125355036,0
-0.016653572201547957,-1.032292125355036,-0.003907957639846806,-0.25015082679212286,0
-0.003907957639846806,-0.25015082679212286,0.0019558878353232337,0.10968711529527836,1
0.0019558878353232337,0.10968711529527836,0.005197020406212436,0.3085809093558046,1
0.005197020406212436,0.3085809093558046,0.0006477943365510208,0.029415274120532506,1
0.0006477943365510208,0.029415274120532506,0.001617446791368065,0.0889185037603354,1
0.001617446791368065,0.0889185037603354,-0.0026973097929299957,-0.17585878896954438,0
-0.0026973097929299957,-0.17585878896954438,0.0010798630015617914,0.05592939355227247,1
0.0010798630015617914,0.05592939355227247,-0.00302644423940117,-0.19605629628616222,0
-0.00302644423940117,-0.19605629628616222,0.009266315985351695,0.5582953592237676,1
0.009266315985351695,0.5582953592237676,-0.021902606590939008,-1.3544018638572604,0
-0.021902606590939008,-1.3544018638572604,0.014150616414386427,0.8580230076351547,1
0.014150616414386427,0.8580230076351547,0.008931052562038888,0.5377217440401991,1
0.008931052562038888,0.5377217440401991,-0.005155158279550295,-0.3266859458469066,0
-0.005155158279550295,-0.3266859458469066,0.002795641679253512,0.16121904879171717,1
0.002795641679253512,0.16121904879171717,-0.004196481112954572,-0.2678562205045992,0
-0.004196481112954572,-0.2678562205045992,-0.0038893806575868227,-0.24901084056722445,0
-0.0038893806575868227,-0.24901084056722445,-0.006842988336429943,-0.430260519363993,0
-0.006842988336429943,-0.430260519363993,0.011486879367199153,0.6945613916392038,1
0.011486879367199153,0.6945613916392038,0.01645688934014278,0.9995486510052148,1
0.01645688934014278,0.9995486510052148,0.004125019305235794,0.2427970015560041,1
0.004125019305235794,0.2427970015560041,0.00578860802064009,0.3448839924846909,1
0.00578860802064009,0.3448839924846909,0.016445018823673507,0.9988202105584286,1
0.016445018823673507,0.9988202105584286,-0.011420453310080922,-0.7111590497005149,0
-0.011420453310080922,-0.7111590497005149,0.0029194725056704883,0.1688179921700085,1
0.0029194725056704883,0.1688179921700085,0.0018722732656291693,0.1045560635282017,1
0.0018722732656291693,0.1045560635282017,0.0013499898279569567,0.07250586742496065,1
0.0013499898279569567,0.07250586742496065,0.0025910777663568033,0.14866587736968825,1
0.0025910777663568033,0.14866587736968825,-0.014807341936172216,-0.9189972402620723,0
-0.014807341936172216,-0.9189972402620723,0.010450507634674332,0.6309638986547094,1
0.010450507634674332,0.6309638986547094,0.004460360007295704,0.2633753589902752,1
0.004460360007295704,0.2633753589902752,0.009989204075010577,0.6026557646341442,1
0.009989204075010577,0.6026557646341442,0.005518110601271293,0.3282847769805003,1
0.005518110601271293,0.3282847769805003,-0.007980386085128556,-0.5000575266281866,0
-0.007980386085128556,-0.5000575266281866,0.006654762526517556,0.39803601639876574,1
0.006654762526517556,0.39803601639876574,-0.02134871665948165,-1.320412118745028,0
-0.02134871665948165,-1.320412118745028,-0.007218762822399969,-0.45332011707900344,0
-0.007218762822399969,-0.45332011707900344,-0.006953942613110154,-0.4370692865382756,0
-0.006953942613110154,-0.4370692865382756,0.014797940545146049,0.8977463912172065,1
0.014797940545146049,0.8977463912172065,0.0023932518371653955,0.13652618583907203,1
0.0023932518371653955,0.13652618583907203,0.020165282780344147,1.2271161525062297,1
0.020165282780344147,1.2271161525062297,0.012450217324257745,0.7536771288240404,1
0.012450217324257745,0.7536771288240404,-0.0011071472786602977,-0.07827763524674046,0
-0.0011071472786602977,-0.07827763524674046,-0.006567353847607497,-0.41334606490809594,0
-0.006567353847607497,-0.41334606490809594,-0.01635190687599547,-1.0137802749992273,0
-0.01635190687599547,-1.0137802749992273,-0.009108901375610228,-0.5693094572018371,0
-0.009108901375610228,-0.5693094572018371,-0.0007281395864059567,-0.05501963013838751,0
-0.0007281395864059567,-0.05501963013838751,-0.0018748084683497162,-0.12538556533935535,0
-0.0018748084683497162,-0.12538556533935535,0.003122757328027173,0.18129267153258347,1
0.003122757328027173,0.18129267153258347,-0.0060461127495281645,-0.381359832518709,0
-0.0060461127495281645,-0.381359832518709,0.002401999529566414,0.13706299255489102,1
0.002401999529566414,0.13706299255489102,-0.009116244137389123,-0.569760049615799,0
-0.009116244137389123,-0.569760049615799,-0.0032684678219849373,-0.21090819991533102,0
-0.0032684678219849373,-0.21090819991533102,0.012176029793651365,0.7368514677152668,1
0.012176029793651365,0.7368514677152668,-0.012387312772853463,-0.7704908859238616,0
-0.012387312772853463,-0.7704908859238616,0.0067375705347543936,0.40311757310050267,1
0.0067375705347543936,0.40311757310050267,-0.005787309499934925,-0.3654782358542841,0
-0.005787309499934925,-0.3654782358542841,0.005157612172636931,0.3061626025073114,1
0.005157612172636931,0.3061626025073114,0.02098556836303821,1.2774534059776026,1
0.02098556836303821,1.2774534059776026,-0.017108550447963077,-1.0602121032224274,0
-0.017108550447963077,-1.0602121032224274,-0.00031385815680570094,-0.02959703370339878,0
-0.00031385815680570094,-0.02959703370339878,0.007919205258462042,0.475629205454806,1
0.007919205258462042,0.475629205454806,0.0004150764402303062,0.015134418792139524,1
0.0004150764402303062,0.015134418792139524,0.002486768123745383,0.14226486163758845,1
0.002486768123745383,0.14226486163758845,0.0024806782040535684,0.14189115053304802,1
0.0024806782040535684,0.14189115053304802,-0.005693923399413457,-0.35974754899128525,0
-0.005693923399413457,-0.35974754899128525,-0.003640323042989043,-0.2337272898874611,0
-0.003640323042989043,-0.2337272898874611,0.007474354396119051,0.4483306998036717,1
0.007474354396119051,0.4483306998036717,0.008342368258513842,0.5015968241021502,1
0.008342368258513842,0.5015968241021502,0.01526747213078838,0.9265594423519947,1
0.01526747213078838,0.9265594423519947,0.012447439142064661,0.7535066442218563,1
0.012447439142064661,0.7535066442218563,0.015442844817741741,0.937321278938387,1
0.015442844817741741,0.937321278938387,-0.007097833459497254,-0.44589922352559824,0
-0.007097833459497254,-0.44589922352559824,0.007588827056286692,0.45535537441940244,1
0.007588827056286692,0.45535537441940244,0.0016677118989323141,0.09200304835505747,1
0.0016677118989323141,0.09200304835505747,9.803613293680074e-05,-0.004320925353324015,1
9.803613293680074e-05,-0.004320925353324015,-0.019996673374461673,-1.2374432759685954,0
-0.019996673374461673,-1.2374432759685954,0.0054843376552935206,0.326212282500499,1
0.0054843376552935206,0.326212282500499,0.00019890894488985953,0.0018691874693037873,1
0.00019890894488985953,0.0018691874693037873,0.003572856150046929,0.20891322097191806,1
0.003572856150046929,0.20891322097191806,-0.010156457606708115,-0.6335932927863973,0
-0.010156457606708115,-0.6335932927863973,0.0009003548564780633,0.04491378241647898,1
0.0009003548564780633,0.04491378241647898,0.0008994687290360418,0.04485940474290037,1
0.0008994687290360418,0.04485940474290037,0.00029964321192062557,0.008050798410370149,1
0.00029964321192062557,0.008050798410370149,0.004086353080979794,0.24042422849718376,1
0.004086353080979794,0.24042422849718376,0.0026818654774228567,0.1542371127058116,1
0.0026818654774228567,0.1542371127058116,0.007510680098871375,0.4505598455372393,1
0.007510680098871375,0.4505598455372393,-0.0006894144649819494,-0.05264324282407216,0
-0.0006894144649819494,-0.05264324282407216,0.0026565337365049503,0.15268261718576615,1
0.0026565337365049503,0.15268261718576615,0.005878395543282853,0.3503938507355107,1
0.005878395543282853,0.3503938507355107,0.006135260468006151,0.3661565010813039,1
0.006135260468006151,0.3661565010813039,-0.0018463874217867458,-0.1236414929638989,0
-0.0018463874217867458,-0.1236414929638989,-0.0020446829432939737,-0.135810001272389,0
-0.0020446829432939737,-0.135810001272389,0.006896235364950548,0.41285412332529786,1
0.006896235364950548,0.41285412332529786,-0.00835930833237468,-0.5233102883589558,0
-0.00835930833237468,-0.5233102883589558,-0.0001952034693282252,-0.022315726796231262,0
-0.0001952034693282252,-0.022315726796231262,0.008360933454398534,0.5027360870499692,1
0.008360933454398534,0.5027360870499692,-0.00884922068009432,-0.5533740156098058,0
-0.00884922068009432,-0.5533740156098058,-0.0031305024875656227,-0.20244188506664265,0
-0.0031305024875656227,-0.20244188506664265,-0.008462125016885952,-0.5296196879370054,0
-0.008462125016885952,-0.5296196879370054,-0.00415881555775663,-0.26554485402548605,0
-0.00415881555775663,-0.26554485402548605,0.05829889195778935,3.567205008681147,1
0.05829889195778935,3.567205008681147,-0.03718965459433332,-2.292499553747905,0
-0.03718965459433332,-2.292499553747905,-0.008194407193813119,-0.5131910438121611,0
-0.008194407193813119,-0.5131910438121611,0.005762617665503465,0.3432890807589155,1
0.005762617665503465,0.3432890807589155,-0.009295081170926136,-0.5807344776407987,0
-0.009295081170926136,-0.5807344776407987,0.022453171576094878,1.367513644130767,1
0.022453171576094878,1.367513644130767,-0.004045061487279231,-0.2585642760416391,0
-0.004045061487279231,-0.2585642760416391,0.008360964708731497,0.5027380049884453,1
0.008360964708731497,0.5027380049884453,0.010282884509194228,0.6206776179581209,1
0.010282884509194228,0.6206776179581209,-0.01037853945282399,-0.6472214613354653,0
-0.01037853945282399,-0.6472214613354653,-0.002203836979125316,-0.1455765718566512,0
-0.002203836979125316,-0.1455765718566512,0.0035429035164887966,0.20707516196008097,1
0.0035429035164887966,0.20707516196008097,-0.007965128397242819,-0.4991212306372598,0
-0.007965128397242819,-0.4991212306372598,0.00028899166145616317,0.007397160449512883,1
0.00028899166145616317,0.007397160449512883,0.011015979217159909,0.6656643578349737,1
0.011015979217159909,0.6656643578349737,0.0075922869251377045,0.4555676910796065,1
0.0075922869251377045,0.4555676910796065,-0.005118430948272289,-0.32443215396896546,0
-0.005118430948272289,-0.32443215396896546,-0.00142648041095977,-0.09787367979694817,0
-0.00142648041095977,-0.09787367979694817,0.0,-0.010336963885642656,0
0.0,-0.010336963885642656,-0.002954542918786559,-0.19164403417030593,0
-0.002954542918786559,-0.19164403417030593,0.002192910833631539,0.1242321554570287,1
0.002192910833631539,0.1242321554570287,0.002568096216913186,0.14725560257769585,1
0.002568096216913186,0.14725560257769585,0.007382263412848425,0.44267948848761185,1
0.007382263412848425,0.44267948848761185,-0.0024547041344063934,-0.16097116594612895,0
-0.0024547041344063934,-0.16097116594612895,0.00254894303700047,0.14608025768271093,1
0.00254894303700047,0.14608025768271093,-0.009473356402272773,-0.5916744303807827,0
-0.009473356402272773,-0.5916744303807827,-0.006110381840678623,-0.38530373888481895,0
-0.006110381840678623,-0.38530373888481895,0.009246538707556571,0.5570817162360691,1
0.009246538707556571,0.5570817162360691,-0.006186680698698214,-0.3899858581817284,0
-0.006186680698698214,-0.3899858581817284,0.002479281701737548,0.14180545343859954,1
0.002479281701737548,0.14180545343859954,0.012963257927071146,0.7851601335357736,1
0.012963257927071146,0.7851601335357736,-0.004050688923035434,-0.25890960657777207,0
-0.004050688923035434,-0.25890960657777207,0.01935091604690415,1.1771421123125818,1
0.01935091604690415,1.1771421123125818,0.02568342547694341,1.565739862918947,1
0.02568342547694341,1.565739862918947,-0.003072721199381347,-0.19889610612014236,0
-0.003072721199381347,-0.19889610612014236,0.007304875725809796,0.4379305526289164,1
0.007304875725809796,0.4379305526289164,-0.01311468709251866,-0.8151265911831238,0
-0.01311468709251866,-0.8151265911831238,-0.0034655507675801504,-0.22300229786927622,0
-0.0034655507675801504,-0.22300229786927622,9.13729157582944e-05,-0.0047298171577462,1
9.13729157582944e-05,-0.0047298171577462,-0.0024695149031904334,-0.16188003651281568,0
-0.0024695149031904334,-0.16188003651281568,0.006298824540323699,0.3761936958592707,1
0.006298824540323699,0.3761936958592707,0.006078478032547903,0.36267201725434656,1
0.006078478032547903,0.36267201725434656,-0.019453531638589427,-1.2041130994955567,0
-0.019453531638589427,-1.2041130994955567,-0.005363447611579669,-0.33946772956095234,0
-0.005363447611579669,-0.33946772956095234,0.0,-0.010336963885642656,0
0.0,-0.010336963885642656,-0.0036226819060348955,-0.23264473229883736,0
-0.0036226819060348955,-0.23264473229883736,-0.003168949757819427,-0.2048012218986907,0
-0.003168949757819427,-0.2048012218986907,0.007996328855463633,0.48036193529036264,1
0.007996328855463633,0.48036193529036264,-0.005292734173982833,-0.33512836250728123,0
-0.005292734173982833,-0.33512836250728123,-0.018131928394238755,-1.1230122257230621,0
-0.018131928394238755,-1.1230122257230621,-0.0008536441559103911,-0.06272128363595539,0
-0.0008536441559103911,-0.06272128363595539,0.012634563223966484,0.764989611300656,1
0.012634563223966484,0.764989611300656,-0.0029088004161537187,-0.18883702159075777,0
-0.0029088004161537187,-0.18883702159075777,0.002627617744119076,0.1509081722012236,1
0.002627617744119076,0.1509081722012236,0.0022468226438519113,0.12754048186604663,1
0.0022468226438519113,0.12754048186604663,-0.0002805590707265299,-0.027553617883719003,0
-0.0002805590707265299,-0.027553617883719003,0.003081900168126883,0.17878545056294667,1
0.003081900168126883,0.17878545056294667,-0.0071120878343886385,-0.44677395069028525,0
-0.0071120878343886385,-0.44677395069028525,-0.0011276334999161133,-0.07953478292040526,0
-0.0011276334999161133,-0.07953478292040526,0.025985157274862693,1.584255792386283,1
0.025985157274862693,1.584255792386283,0.011476530885036309,0.6939263516230618,1
0.011476530885036309,0.6939263516230618,-0.018832237423740027,-1.165987055306827,0
-0.018832237423740027,-1.165987055306827,0.00018452194629721845,0.0009863217818787309,1
0.00018452194629721845,0.0009863217818787309,-0.004902186108812771,-0.3111621763838421,0
-0.004902186108812771,-0.3111621763838421,0.0006488362457156924,0.029479211420934605,1
0.0006488362457156924,0.029479211420934605,0.01845360743414181,1.1220783003480728,1
0.01845360743414181,1.1220783003480728,0.001908475925873586,0.10677765869396834,1
0.001908475925873586,0.10677765869396834,0.012899915577065333,0.7812730971243288,1
0.012899915577065333,0.7812730971243288,-0.0006276029696295737,-0.048850148108475336,0
-0.0006276029696295737,-0.048850148108475336,-0.001615656983911592,-0.10948259906168319,0
-0.001615656983911592,-0.10948259906168319,-0.0014382960974706714,-0.09859875557468416,0
-0.0014382960974706714,-0.09859875557468416,-0.0004499307296548844,-0.03794719824916016,0
-0.0004499307296548844,-0.03794719824916016,-0.0029744655033437277,-0.19286659398339615,0
-0.0029744655033437277,-0.19286659398339615,-0.0009030839097871093,-0.06575517997030413,0
-0.0009030839097871093,-0.06575517997030413,-0.0009943558817183654,-0.07135613222750013,0
-0.0009943558817183654,-0.07135613222750013,0.0009943558817183033,0.050682204456211015,1
0.0009943558817183033,0.050682204456211015,0.0012641030094012828,0.06723537791899162,1
0.0012641030094012828,0.06723537791899162,-0.002982260894475383,-0.19334496223413863,0
-0.002982260894475383,-0.19334496223413863,0.005235630640498763,0.31095024656087505,1
0.005235630640498763,0.31095024656087505,-0.012867141651628597,-0.7999358358332115,0
-0.012867141651628597,-0.7999358358332115,0.002823166191240025,0.1629081048543515,1
0.002823166191240025,0.1629081048543515,0.0058938514611719525,0.35134231121419074,1
0.0058938514611719525,0.35134231121419074,0.0006326512437920713,0.02848601031944965,1
0.0006326512437920713,0.02848601031944965,-0.0057083219728872765,-0.36063112497734295,0
-0.0057083219728872765,-0.36063112497734295,0.008595365609216045,0.5171221387469066,1
0.008595365609216045,0.5171221387469066,-0.00018016616648435681,-0.021392954848574213,0
-0.00018016616648435681,-0.021392954848574213,-9.012963307901304e-05,-0.0158678159221732,0
-9.012963307901304e-05,-0.0158678159221732,0.007809340228546191,0.4688872804774695,1
0.007809340228546191,0.4688872804774695,0.004994705293708756,0.29616573674513924,1
0.004994705293708756,0.29616573674513924,0.003552415083522951,0.20765884424197079,1
0.003552415083522951,0.20765884424197079,0.0014173995215023996,0.07664249849834874,1
0.0014173995215023996,0.07664249849834874,-8.854974470044777e-05,-0.01577086524615726,0
-8.854974470044777e-05,-0.01577086524615726,0.005738276959667737,0.34179540062461267,1
0.005738276959667737,0.34179540062461267,-0.06247489924933207,-3.8441418063206285,0
-0.06247489924933207,-3.8441418063206285,-0.003284985521091549,-0.21192181715332103,0
-0.003284985521091549,-0.21192181715332103,-0.009255858930110493,-0.578327584335216,0
-0.009255858930110493,-0.578327584335216,0.016188600320416243,0.9830849550992029,1
0.016188600320416243,0.9830849550992029,-0.003366697366166418,-0.2169361072297581,0
-0.003366697366166418,-0.2169361072297581,-0.005636449584726511,-0.3562206383166373,0
-0.005636449584726511,-0.3562206383166373,-0.001131141099109511,-0.07975002857801411,0
-0.001131141099109511,-0.07975002857801411,-0.007383588862407071,-0.46343475316375654,0
-0.007383588862407071,-0.46343475316375654,-0.0013310459204390285,-0.09201729241113503,0
-0.0013310459204390285,-0.09201729241113503,0.010410831071423298,0.6285291256154456,1
0.010410831071423298,0.6285291256154456,-0.014605731340278679,-0.9066253006813757,0
-0.014605731340278679,-0.9066253006813757,0.003243077687820112,0.1886761932918862,1
0.003243077687820112,0.1886761932918862,0.0012371855251535223,0.06558357243078453,1
0.0012371855251535223,0.06558357243078453,-0.01668781275479215,-1.0343933147993172,0
-0.01668781275479215,-1.0343933147993172,-0.0002901656805869992,-0.02814313251831595,0
-0.0002901656805869992,-0.02814313251831595,-0.0199322756203522,-1.233491474132765,0
-0.0199322756203522,-1.233491474132765,-0.005938832249794028,-0.3747765085866744,0
-0.005938832249794028,-0.3747765085866744,0.018004266087051694,1.0945042337536592,1
0.018004266087051694,1.0945042337536592,0.003698348573700248,0.2166141291329847,1
0.003698348573700248,0.2166141291329847,0.007741430389698786,0.46471995772624564,1
0.007741430389698786,0.46471995772624564,-0.010270389356050744,-0.6405847741266658,0
-0.010270389356050744,-0.6405847741266658,-0.005860521441117633,-0.36997092488624495,0
-0.005860521441117633,-0.36997092488624495,0.0030322080917512526,0.17573607032658595,1
0.0030322080917512526,0.17573607032658595,0.020780736416771965,1.2648837865477751,1
0.020780736416771965,1.2648837865477751,-0.008742945350059957,-0.5468523744417094,0
-0.008742945350059957,-0.5468523744417094,0.0007716970814885985,0.037018630816425875,1
0.0007716970814885985,0.037018630816425875,9.64386658004804e-05,-0.004418954758996424,1
9.64386658004804e-05,-0.004418954758996424,0.004137209918082577,0.2435450848842817,1
0.004137209918082577,0.2435450848842817,-0.002788338064913671,-0.18144478645209708,0
-0.002788338064913671,-0.18144478645209708,-0.00048156260572063846,-0.03988830485506618,0
-0.00048156260572063846,-0.03988830485506618,0.004900813565833403,0.2904040217953234,1
0.004900813565833403,0.2904040217953234,0.0025848144992613575,0.14828152871113096,1
0.0025848144992613575,0.14828152871113096,-0.011056151686472698,-0.6888034901801677,0
-0.011056151686472698,-0.6888034901801677,0.007320341966013132,0.43887964654180406,1
0.007320341966013132,0.43887964654180406,-0.0018250311280188817,-0.12233095283582375,0
-0.0018250311280188817,-0.12233095283582375,-0.004046304185692849,-0.25864053487923727,0
-0.004046304185692849,-0.25864053487923727,0.022054502297986153,1.3430490955311207,1
0.022054502297986153,1.3430490955311207,0.0074321890705097106,0.4457432025616387,1
0.0074321890705097106,0.4457432025616387,-0.015395863798941138,-0.9551121919382285,0
-0.015395863798941138,-0.9551121919382285,0.013425613325673203,0.8135328142024891,1
0.013425613325673203,0.8135328142024891,-0.0016918915564612816,-0.11416077344713585,0
-0.0016918915564612816,-0.11416077344713585,0.004692641043787108,0.27762940618693527,1
0.004692641043787108,0.27762940618693527,0.01431644132714064,0.8681989400680551,1
0.01431644132714064,0.8681989400680551,0.004328823097841238,0.25530352779911314,1
0.004328823097841238,0.25530352779911314,0.001652895775390003,0.09109384919083098,1
0.001652895775390003,0.09109384919083098,-0.002112475895014741,-0.1399701511840004,0
-0.002112475895014741,-0.1399701511840004,0.0036710899822637393,0.21494139142387408,1
0.0036710899822637393,0.21494139142387408,-0.005972375069164179,-0.37683488122713255,0
-0.005972375069164179,-0.37683488122713255,-0.004803743856137196,-0.30512121610151144,0
-0.004803743856137196,-0.30512121610151144,0.00793216319945164,0.4764243762755807,1
0.00793216319945164,0.4764243762755807,-0.0017469988365391537,-0.1175424604887236,0
-0.0017469988365391537,-0.1175424604887236,0.021306426486497086,1.2971430324072823,1
0.021306426486497086,1.2971430324072823,0.008879361207078156,0.5345496770286209,1
0.008879361207078156,0.5345496770286209,0.002408066023951987,0.13743526615327162,1
0.002408066023951987,0.13743526615327162,0.006835630859460047,0.40913509617335986,1
0.006835630859460047,0.40913509617335986,0.0022093597666042013,0.12524155282527105,1
0.0022093597666042013,0.12524155282527105,-0.005665732178300458,-0.3580175799746753,0
-0.005665732178300458,-0.3580175799746753,-0.0023109257472084597,-0.15214813007572178,0
-0.0023109257472084597,-0.15214813007572178,0.000266972807931241,0.006045961995685592,1
0.000266972807931241,0.006045961995685592,0.008768470697522764,0.5277448229572782,1
0.008768470697522764,0.5277448229572782,0.0008814321720835555,0.04375258199942816,1
0.0008814321720835555,0.04375258199942816,-0.0029117401232897767,-0.189017418255482,0
-0.0029117401232897767,-0.189017418255482,-0.0018573311581165165,-0.12431306106308003,0
-0.0018573311581165165,-0.12431306106308003,-0.0007084824273677011,-0.053813358300979386,0
-0.0007084824273677011,-0.053813358300979386,0.012588751467237461,0.7621783489073027,1
0.012588751467237461,0.7621783489073027,0.029734638441189242,1.8143446636738216,1
0.029734638441189242,1.8143446636738216,-0.007415356723020381,-0.4653842045324902,0
-0.007415356723020381,-0.4653842045324902,0.0046942692566563984,0.2777293223205794,1
0.0046942692566563984,0.2777293223205794,0.0023813480800732793,0.1357957055640932,1
0.0023813480800732793,0.1357957055640932,0.008037582512425487,0.4828934875093956,1
0.008037582512425487,0.4828934875093956,-0.006255285557595824,-0.3941958312015574,0
-0.006255285557595824,-0.3941958312015574,-0.015122648086740078,-0.9383461669737793,0
-0.015122648086740078,-0.9383461669737793,0.0006884182813611012,0.03190818372427809,1
0.0006884182813611012,0.03190818372427809,-0.002756718667691137,-0.17950444561692686,0
-0.002756718667691137,-0.17950444561692686,0.0020683003863301726,0.11658537023572918,1
0.0020683003863301726,0.11658537023572918,0.00318015750682181,0.18481506350221705,1
0.00318015750682181,0.18481506350221705,-0.00163183310476243,-0.11047525517149547,0
-0.00163183310476243,-0.11047525517149547,0.0,-0.010336963885642656,0
0.0,-0.010336963885642656,-0.0018927441955768893,-0.12648620061403912,0
-0.0018927441955768893,-0.12648620061403912,-0.008562261980172984,-0.5357646450216808,0
-0.008562261980172984,-0.5357646450216808,-0.004003478747041672,-0.25601252945541036,0
-0.004003478747041672,-0.25601252945541036,-0.001046986541400102,-0.07458584016417276,0
-0.001046986541400102,-0.07458584016417276,-0.001747528415921352,-0.11757495840427562,0
-0.001747528415921352,-0.11757495840427562,-0.008430708523870756,-0.5276917984245583,0
-0.008430708523870756,-0.5276917984245583,0.005452983981863713,0.3242882479447393,1
0.005452983981863713,0.3242882479447393,-0.0015800591598525116,-0.10729811998452309,0
-0.0015800591598525116,-0.10729811998452309,0.009181957968648003,0.5531186854424124,1
0.009181957968648003,0.5531186854424124,0.003996175045064032,0.23489040619528034,1
0.003996175045064032,0.23489040619528034,-0.0006070829461398111,-0.047590926143059,0
-0.0006070829461398111,-0.047590926143059,0.007174702070479135,0.42994237823951176,1
0.007174702070479135,0.42994237823951176,-0.0021556378538222483,-0.1426188073430893,0
-0.0021556378538222483,-0.1426188073430893,0.012779434581102207,0.7738797178424925,1
0.012779434581102207,0.7738797178424925,-0.002816252800640956,-0.18315778879851866,0
-0.002816252800640956,-0.18315778879851866,-0.0013683715612609702,-0.09430779986692223,0
-0.0013683715612609702,-0.09430779986692223,-0.007904484611700964,-0.4953997930444423,0
-0.007904484611700964,-0.4953997930444423,0.013962257468671352,0.8464642624931028,1
0.013962257468671352,0.8464642624931028,-0.006913924234388921,-0.43461353781404694,0
-0.006913924234388921,-0.43461353781404694,-0.004808093342047398,-0.3053881245774753,0
-0.004808093342047398,-0.3053881245774753,-0.000688780311377821,-0.052604327656739884,0
-0.000688780311377821,-0.052604327656739884,-0.0016377406790023552,-0.11083777655208514,0
-0.0016377406790023552,-0.11083777655208514,-0.002072521168021279,-0.13751830848131144,0
-0.002072521168021279,-0.13751830848131144,0.0018136990310962317,0.10096162501461418,1
0.0018136990310962317,0.10096162501461418,0.0031015843878116527,0.1799933829910703,1
0.0031015843878116527,0.1799933829910703,-0.021124793973701893,-1.3066709861079449,0
-0.021124793973701893,-1.3066709861079449,0.01109614866710826,0.6705839980284011,1
0.01109614866710826,0.6705839980284011,0.00899583044586808,0.5416968727349397,1
0.00899583044586808,0.5416968727349397,0.0015487897536969224,0.08470532876279938,1
0.0015487897536969224,0.08470532876279938,-0.0012904367575279235,-0.08952528990634523,0
-0.0012904367575279235,-0.08952528990634523,0.00017213258822711524,0.0002260423491058886,1
0.00017213258822711524,0.0002260423491058886,8.608801582307415e-05,-0.005054127804211921,1
8.608801582307415e-05,-0.005054127804211921,0.0007742619857529611,0.037176027507052796,1
0.0007742619857529611,0.037176027507052796,0.0018043488806569023,0.10038784814642372,1
0.0018043488806569023,0.10038784814642372,0.005820441979361574,0.3468374999983762,1
0.005820441979361574,0.3468374999983762,-0.0029915700529261984,-0.1939162236075311,0
-0.0029915700529261984,-0.1939162236075311,0.010050338465860372,0.6064073084780786,1
0.010050338465860372,0.6064073084780786,0.0016088952151068969,0.08839373181393055,1
0.0016088952151068969,0.08839373181393055,-0.006110527453361236,-0.3853126744831861,0
-0.006110527453361236,-0.3853126744831861,0.012267990505121125,0.7424946848341852,1
0.012267990505121125,0.7424946848341852,-0.0016831930312584558,-0.11362698390212922,0
-0.0016831930312584558,-0.11362698390212922,-0.0042204839793592895,-0.26932916894565984,0
-0.0042204839793592895,-0.26932916894565984,-0.013712266955545236,-0.8517973917788914,0
-0.013712266955545236,-0.8517973917788914,0.00819885951758696,0.49279033521608606,1
0.00819885951758696,0.49279033521608606,0.005090351871879652,0.30203513900044315,1
0.005090351871879652,0.30203513900044315,-0.013031987128267891,-0.8100516646570568,0
-0.013031987128267891,-0.8100516646570568,-0.01851744003327273,-1.1466693489245743,0
-0.01851744003327273,-1.1466693489245743,0.03357838627593644,2.050218258333686,1
0.03357838627593644,2.050218258333686,0.00025331457618090294,0.005207817466399214,1
0.00025331457618090294,0.005207817466399214,-0.014114711444035309,-0.8764936081365513,0
-0.014114711444035309,-0.8764936081365513,0.004016594924012555,0.23614348273858699,1
0.004016594924012555,0.23614348273858699,0.014310777478426854,0.8678513750317502,1
0.014310777478426854,0.8678513750317502,0.010621020895280726,0.6414275340037358,1
0.010621020895280726,0.6414275340037358,0.010427123061503679,0.6295288921010832,1
0.010427123061503679,0.6295288921010832,-0.015765357382388556,-0.9777863587874774,0
-0.015765357382388556,-0.9777863587874774,-0.010255648312154052,-0.63968018226413,0
-0.010255648312154052,-0.63968018226413,0.0032057128843193893,0.1863832825978488,1
0.0032057128843193893,0.1863832825978488,-0.009392923568248949,-0.5867386274859168,0
-0.009392923568248949,-0.5867386274859168,-0.017236649416496476,-1.0680729633722663,0
-0.017236649416496476,-1.0680729633722663,-0.03190214906791006,-1.9680290138163024,0
-0.03190214906791006,-1.9680290138163024,0.017527187697225756,1.0652280690361096,1
0.017527187697225756,1.0652280690361096,0.0014906239041794073,0.08113595100910931,1
0.0014906239041794073,0.08113595100910931,-0.034134171572874884,-2.104998241310487,0
-0.034134171572874884,-2.104998241310487,0.018593068434866324,1.1306363975412297,1
0.018593068434866324,1.1306363975412297,0.01422600149668829,0.8626490526075975,1
0.01422600149668829,0.8626490526075975,0.0050756580423714365,0.301133444473531,1
0.0050756580423714365,0.301133444473531,0.015246329260443565,0.9252619990638122,1
0.015246329260443565,0.9252619990638122,-0.0011182079546617236,-0.07895637940998654,0
-0.0011182079546617236,-0.07895637940998654,-0.00025822060405008906,-0.026182806201815775,0
-0.00025822060405008906,-0.026182806201815775,-0.0065642153063892004,-0.4131534666860025,0
-0.0065642153063892004,-0.4131534666860025,0.0019046081130602425,0.10654030833932031,1
0.0019046081130602425,0.10654030833932031,0.002073595526907415,0.11691030930454445,1
0.002073595526907415,0.11691030930454445,0.013715271363510619,0.831307831072535,1
0.013715271363510619,0.831307831072535,0.0005957674584539451,0.026222617556344835,1
0.0005957674584539451,0.026222617556344835,-0.01906947714797278,-1.180545394968194,0
-0.01906947714797278,-1.180545394968194,-0.02520436485917911,-1.5570159855193133,0
-0.02520436485917911,-1.5570159855193133,-0.011899060662163579,-0.740529039985999,0
-0.011899060662163579,-0.740529039985999,-0.007770192762180892,-0.48715890351639546,0
-0.007770192762180892,-0.48715890351639546,0.02251117086388777,1.3710728007371786,1
0.02251117086388777,1.3710728007371786,0.020278950992436,1.234091461745377,1
0.020278950992436,1.234091461745377,-0.0004346390833224962,-0.03700881838040767,0
-0.0004346390833224962,-0.03700881838040767,0.0032983701965633525,0.19206924698732664,1
0.0032983701965633525,0.19206924698732664,0.019309760846497975,1.1746166019315425,1
0.019309760846497975,1.1746166019315425,-0.010166269595346935,-0.6341954105970606,0
-0.010166269595346935,-0.6341954105970606,-0.0033544037963787235,-0.21618170589499516,0
-0.0033544037963787235,-0.21618170589499516,-0.008913552820216419,-0.5573217910090106,0
-0.008913552820216419,-0.5573217910090106,-0.006628335250189872,-0.417088220547047,0
-0.006628335250189872,-0.417088220547047,0.005671683355100261,0.33770884927785366,1
0.005671683355100261,0.33770884927785366,-0.014990410645780567,-0.9302313473007056,0
-0.014990410645780567,-0.9302313473007056,0.0055489397170054525,0.33017662177912754,1
0.0055489397170054525,0.33017662177912754,0.000877949802930427,0.04353888459642589,1
0.000877949802930427,0.04353888459642589,-0.023440649338402515,-1.4487846608516972,0
-0.023440649338402515,-1.4487846608516972,-0.016577164736732698,-1.0276033413453514,0
-0.016577164736732698,-1.0276033413453514,0.022131763792657813,1.3477902875292675,1
0.022131763792657813,1.3477902875292675,-0.00017866907402772867,-0.021301084987577917,0
-0.00017866907402772867,-0.021301084987577917,-0.01748739713046471,-1.0834602278831602,0
-0.01748739713046471,-1.0834602278831602,0.014713423851288808,0.8925599801293975,1
0.014713423851288808,0.8925599801293975,-0.030385275173220858,-1.8749452545354128,0
-0.030385275173220858,-1.8749452545354128,0.01757963371312369,1.0684464462104926,1
0.01757963371312369,1.0684464462104926,0.005521130981846173,0.32847012421295857,1
0.005521130981846173,0.32847012421295857,0.007911551264475966,0.4751595141137976,1
0.007911551264475966,0.4751595141137976,-0.020628604508578056,-1.2762220602671028,0
-0.020628604508578056,-1.2762220602671028,0.0020091442439175095,0.1129552226409915,1
0.0020091442439175095,0.1129552226409915,0.006819138083610891,0.40812300836408877,1
0.006819138083610891,0.40812300836408877,-0.009834370227572602,-0.6138282324396993,0
-0.009834370227572602,-0.6138282324396993,0.006930559724260891,0.41496045557262645,1
0.006930559724260891,0.41496045557262645,-0.00036357858390796677,-0.032648153696915864,0
-0.00036357858390796677,-0.032648153696915864,0.015962792570804466,0.9692281445349148,1
0.015962792570804466,0.9692281445349148,0.011652390654728673,0.7047180782962872,1
0.011652390654728673,0.7047180782962872,0.0009722951954774403,0.049328438915907824,1
0.0009722951954774403,0.049328438915907824,-0.03186557834571125,-1.9657848323363518,0
-0.03186557834571125,-1.9657848323363518,-0.007047730746538294,-0.44282464436069874,0
-0.007047730746538294,-0.44282464436069874,9.179799626119607e-05,-0.004703731870534367,1
9.179799626119607e-05,-0.004703731870534367,-0.028979439515527863,-1.788675414697475,0
-0.028979439515527863,-1.788675414697475,0.01975257921001471,1.2017903822299996,1
0.01975257921001471,1.2017903822299996,-0.0016699169853097392,-0.11281229240429341,0
-0.0016699169853097392,-0.11281229240429341,0.002503866238380676,0.14331409637782686,1
0.002503866238380676,0.14331409637782686,-0.01954707064661405,-1.2098531696073975,0
-0.01954707064661405,-1.2098531696073975,0.00977452272687134,0.5894817315109858,1
0.00977452272687134,0.5894817315109858,-0.011381387025426778,-0.708761726726287,0
-0.011381387025426778,-0.708761726726287,-0.007120170646678747,-0.44726995669062536,0
-0.007120170646678747,-0.44726995669062536,0.013626274775363168,0.8258465089303704,1
0.013626274775363168,0.8258465089303704,-0.0017873335350359742,-0.120017620341293,0
-0.0017873335350359742,-0.120017620341293,0.004415444461003719,0.2606190930187592,1
0.004415444461003719,0.2606190930187592,0.0034623413689921344,0.2021314236763739,1
0.0034623413689921344,0.2021314236763739,-0.00881974590590746,-0.5515652806880209,0
-0.00881974590590746,-0.5515652806880209,-0.05501532719362438,-3.3863812686760544,0
-0.05501532719362438,-3.3863812686760544,0.024976725079659888,1.5223728237110323,1
0.024976725079659888,1.5223728237110323,0.0005825005853418975,0.02540848895442504,1
0.0005825005853418975,0.02540848895442504,0.0045514165964829064,0.2689630941728212,1
0.0045514165964829064,0.2689630941728212,0.008753878670910934,0.5268493756183059,1
0.008753878670910934,0.5268493756183059,0.005158525812100156,0.30621866847044926,1
0.005158525812100156,0.30621866847044926,0.0007619948238258237,0.03642324670445397,1
0.0007619948238258237,0.03642324670445397,-0.021071665224348564,-1.3034107126382684,0
-0.021071665224348564,-1.3034107126382684,-0.0012648725239109277,-0.08795652735031717,0
-0.0012648725239109277,-0.08795652735031717,-0.0020466756855382073,-0.1359322869416332,0
-0.0020466756855382073,-0.1359322869416332,0.008742178252915183,0.5261313733532426,1
0.008742178252915183,0.5261313733532426,-0.023088489728103796,-1.427174202323624,0
-0.023088489728103796,-1.427174202323624,0.0038524212933630695,0.22606888209501957,1
0.0038524212933630695,0.22606888209501957,-0.00504080276740575,-0.3196684600808358,0
-0.00504080276740575,-0.3196684600808358,0.010742763006578991,0.6488983022871841,1
0.010742763006578991,0.6488983022871841,0.0041087727919923,0.24180002578022872,1
0.0041087727919923,0.24180002578022872,0.0006831571506602641,0.03158533168930233,1
0.0006831571506602641,0.03158533168930233,0.01385479995822626,0.8398700762062828,1
0.01385479995822626,0.8398700762062828,-0.008115240951816543,-0.5083329659989808,0
-0.008115240951816543,-0.5083329659989808,0.01022982477288977,0.6174215795102553,1
0.01022982477288977,0.6174215795102553,-0.00211458382107336,-0.14009950516821054,0
-0.00211458382107336,-0.14009950516821054,-0.0038561845494829755,-0.24697374404481773,0
-0.0038561845494829755,-0.24697374404481773,-0.0022240083189438934,-0.14681439666635976,0
-0.0022240083189438934,-0.14681439666635976,0.006368795298492472,0.3804874880017072,1
0.006368795298492472,0.3804874880017072,0.013566637750785647,0.8221868517502724,1
0.013566637750785647,0.8221868517502724,-0.003612488560017163,-0.23201921229331585,0
-0.003612488560017163,-0.23201921229331585,-0.008320257992191257,-0.5209139438255065,0
-0.008320257992191257,-0.5209139438255065,0.009652697420838094,0.5820058579391468,1
0.009652697420838094,0.5820058579391468,-0.00802139832002102,-0.5025742638557619,0
-0.00802139832002102,-0.5025742638557619,0.010680962791772119,0.6451058998081575,1
0.010680962791772119,0.6451058998081575,-0.0029449274158695584,-0.19105397380864733,0
-0.0029449274158695584,-0.19105397380864733,0.00682662376543021,0.4085823711410225,1
0.00682662376543021,0.4085823711410225,-0.006826623765430187,-0.42925629891230643,0
-0.006826623765430187,-0.42925629891230643,0.005786674640604151,0.344765349608382,1
0.005786674640604151,0.344765349608382,-0.01900269947669489,-1.1764475482715555,0
-0.01900269947669489,-1.1764475482715555,-0.010174042830916096,-0.634672419260132,0
-0.010174042830916096,-0.634672419260132,-0.006644545690773963,-0.4180829827052262,0
-0.006644545690773963,-0.4180829827052262,0.007909787523577997,0.47505128123184526,1
0.007909787523577997,0.47505128123184526,0.0018463874217868723,0.10296756519262135,1
0.0018463874217868723,0.10296756519262135,0.008892366512859616,0.5353477544146016,1
0.008892366512859616,0.5353477544146016,0.008432446264272465,0.5071245080011841,1
0.008432446264272465,0.5071245080011841,-0.01006964189595995,-0.6282658013255877,0
-0.01006964189595995,-0.6282658013255877,0.0008670585781246931,0.042870538894360315,1
0.0008670585781246931,0.042870538894360315,0.0014435024405557973,0.07824431776770394,1
0.0014435024405557973,0.07824431776770394,-0.01570099236785857,-0.9738365660330522,0
-0.01570099236785857,-0.9738365660330522,0.029263815247042,1.785452352308122,1
0.029263815247042,1.785452352308122,0.012632109100062062,0.7648390127047118,1
0.012632109100062062,0.7648390127047118,-0.0033780703173853267,-0.2176340143249231,0
-0.0033780703173853267,-0.2176340143249231,-0.013151231633825174,-0.8173691660589365,0
-0.013151231633825174,-0.8173691660589365,-0.005634858781188561,-0.35612301782616135,0
-0.005634858781188561,-0.35612301782616135,0.015585218410950423,0.9460581088914845,1
0.015585218410950423,0.9460581088914845,0.0300026748647782,1.8307928588858418,1
0.0300026748647782,1.8307928588858418,0.012549085911243232,0.7597442513341053,1
0.012549085911243232,0.7597442513341053,-0.011085994380895407,-0.6906348027195043,0
-0.011085994380895407,-0.6906348027195043,0.0027374359821296748,0.15764722576884038,1
0.0027374359821296748,0.15764722576884038,0.008348558398765598,0.5019766852937277,1
0.008348558398765598,0.5019766852937277,-0.008439636967929967,-0.5282396970603448,0
-0.008439636967929967,-0.5282396970603448,-0.0037434753270915552,-0.24005728370981483,0
-0.0037434753270915552,-0.24005728370981483,0.014800263604614127,0.8978889469755189,1
0.014800263604614127,0.8978889469755189,-0.005694391154130666,-0.35977625300396,0
-0.005694391154130666,-0.35977625300396,-0.0032685757477269877,-0.210914822834895,0
-0.0032685757477269877,-0.210914822834895,-0.006477820995341934,-0.40785183463806635,0
-0.006477820995341934,-0.40785183463806635,-0.0003662081492448523,-0.032809518348050674,0
-0.0003662081492448523,-0.032809518348050674,-0.016153949045482823,-1.0016324892751003,0
-0.016153949045482823,-1.0016324892751003,-0.012925133082346156,-0.8034945102860892,0
-0.012925133082346156,-0.8034945102860892,0.0072324237859609205,0.43348450147599044,1
0.0072324237859609205,0.43348450147599044,0.0016831901064550462,0.09295287664875414,1
0.0016831901064550462,0.09295287664875414,0.008095728814649789,0.486461665733222,1
0.008095728814649789,0.486461665733222,0.0048076705379683496,0.2846882512129175,1
0.0048076705379683496,0.2846882512129175,0.01201027665171691,0.726679939536229,1
0.01201027665171691,0.726679939536229,0.012227845327329656,0.7400311550187451,1
0.012227845327329656,0.7400311550187451,-0.0043306036308454554,-0.27608671890872644,0
-0.0043306036308454554,-0.27608671890872644,-0.007532838174157473,-0.4725935151784852,0
-0.007532838174157473,-0.4725935151784852,0.007713692277810727,0.46301779399402354,1
0.007713692277810727,0.46301779399402354,0.0045997330870037765,0.2719280608643098,1
0.0045997330870037765,0.2719280608643098,-0.011402788771257416,-0.7100750560439479,0
-0.011402788771257416,-0.7100750560439479,0.016160698967920672,0.9813727740217896,1
0.016160698967920672,0.9813727740217896,-0.008996102115874732,-0.5623874716781606,0
-0.008996102115874732,-0.5623874716781606,-0.001085015875872392,-0.07691953014857082,0
-0.001085015875872392,-0.07691953014857082,-0.005988618456557578,-0.3778316651834832,0
-0.005988618456557578,-0.3778316651834832,0.006531239060984408,0.39045593438174037,1
0.006531239060984408,0.39045593438174037,0.012578796003233686,0.7615674266558872,1
0.012578796003233686,0.7615674266558872,-0.004384579160524639,-0.27939895549563476,0
-0.004384579160524639,-0.27939895549563476,0.005187795227281965,0.3080148014295666,1
0.005187795227281965,0.3080148014295666,0.00445078192712411,0.262787595094946,1
0.00445078192712411,0.262787595094946,-0.004986187614560683,-0.31631697268407977,0
-0.004986187614560683,-0.31631697268407977,0.008178534220935169,0.491543062764848,1
0.008178534220935169,0.491543062764848,-0.006929654562143734,-0.4355788375975458,0
-0.006929654562143734,-0.4355788375975458,0.007283738981580219,0.436633485272997,1
0.007283738981580219,0.436633485272997,0.0024750192612707617,0.14154388655176167,1
0.0024750192612707617,0.14154388655176167,0.015592523430808134,0.9465063852527285,1
0.015592523430808134,0.9465063852527285,0.007533439209712934,0.4519564702681678,1
0.007533439209712934,0.4519564702681678,0.0005175091757881461,0.021420257142006207,1
0.0005175091757881461,0.021420257142006207,-0.028777083763310153,-1.7762577482095194,0
-0.028777083763310153,-1.7762577482095194,-0.010257428459586493,-0.6397894219416445,0
-0.010257428459586493,-0.6397894219416445,-0.010363734668257914,-0.6463129579934414,0
-0.010363734668257914,-0.6463129579934414,-0.01276342920023566,-0.7935714670523318,0
-0.01276342920023566,-0.7935714670523318,0.001283691656037447,0.06843744545704014,1
0.001283691656037447,0.06843744545704014,0.005665244998266064,0.3373137561459743,1
0.005665244998266064,0.3373137561459743,0.004182576441053038,0.24632902527535724,1
0.004182576441053038,0.24632902527535724,-0.013519852512643205,-0.8399897789325189,0
-0.013519852512643205,-0.8399897789325189,-0.002486342911927938,-0.16291269606347633,0
-0.002486342911927938,-0.16291269606347633,-0.004065068883981455,-0.25979204039633436,0
-0.004065068883981455,-0.25979204039633436,0.014338528732240802,0.8695543452251228,1
0.014338528732240802,0.8695543452251228,-0.10598941780557396,-6.514432978641819,0
-0.10598941780557396,-6.514432978641819,0.010496674256034975,0.6337969375016378,1
0.010496674256034975,0.6337969375016378,-0.03286346655572413,-2.0270207638500315,0
-0.03286346655572413,-2.0270207638500315,-0.013474909675441444,-0.837231838240062,0
-0.013474909675441444,-0.837231838240062,0.011085714865246466,0.6699437223243442,1
0.011085714865246466,0.6699437223243442,0.02089304383367181,1.2717755898788,1
0.02089304383367181,1.2717755898788,-0.0006112843558763312,-0.047848747847238804,0
-0.0006112843558763312,-0.047848747847238804,0.008827565969090736,0.5313712351808196,1
0.008827565969090736,0.5313712351808196,0.023955647593198192,1.4597138701291257,1
0.023955647593198192,1.4597138701291257,0.0026594870972173976,0.15286385170934097,1
0.0026594870972173976,0.15286385170934097,-0.010183551390493543,-0.6352559169878692,0
-0.010183551390493543,-0.6352559169878692,-0.02873035198505302,-1.7733900282142814,0
-0.02873035198505302,-1.7733900282142814,0.05887848910756,3.602772290680021,1
0.05887848910756,3.602772290680021,-0.008521376726160903,-0.5332557000421916,0
-0.008521376726160903,-0.5332557000421916,0.0005832934079217594,0.025457140926375185,1
0.0005832934079217594,0.025457140926375185,0.012843610738181244,0.7778179212607415,1
0.012843610738181244,0.7778179212607415,0.00831302983631999,0.49979645649167526,1
0.00831302983631999,0.49979645649167526,0.01557885986225555,0.9456679132277832,1
0.01557885986225555,0.9456679132277832,0.0015914423871439933,0.08732272990496662,1
0.0015914423871439933,0.08732272990496662,-0.004312030608515133,-0.27494697568698123,0
-0.004312030608515133,-0.27494697568698123,0.008512316237438517,0.5120257706453563,1
0.008512316237438517,0.5120257706453563,0.020010794282270355,1.2176358850847158,1
0.020010794282270355,1.2176358850847158,-0.007882722965654258,-0.4940643782619349,0
-0.007882722965654258,-0.4940643782619349,-0.008873328362330648,-0.5548533961291511,0
-0.008873328362330648,-0.5548533961291511,-0.02167977127845856,-1.3407274584509614,0
-0.02167977127845856,-1.3407274584509614,-0.010395439301706019,-0.6482585293941391,0
-0.010395439301706019,-0.6482585293941391,0.009920914483712334,0.5984651381753122,1
0.009920914483712334,0.5984651381753122,0.016288109985729698,0.9891914177158975,1
0.016288109985729698,0.9891914177158975,0.0008401058873631576,0.04121657294003615,1
0.0008401058873631576,0.04121657294003615,0.004933214187225156,0.2923923028599132,1
0.004933214187225156,0.2923923028599132,-0.017043204408233342,-1.056202109343926,0
-0.017043204408233342,-1.056202109343926,0.008745180825752846,0.5263156278046001,1
0.008745180825752846,0.5263156278046001,0.004483924937722724,0.26482143326119484,1
0.004483924937722724,0.26482143326119484,0.00046587544991216767,0.018251726569331408,1
0.00046587544991216767,0.018251726569331408,-0.014450784362979627,-0.8971168984425979,0
-0.014450784362979627,-0.8971168984425979,0.017241771919610505,1.0477133806816439,1
0.017241771919610505,1.0477133806816439,0.007681328117557127,0.46103175038623134,1
0.007681328117557127,0.46103175038623134,0.00789719988839742,0.4742788344205667,1
0.00789719988839742,0.4742788344205667,0.011187489742820685,0.6761891908752429,1
0.011187489742820685,0.6761891908752429,-0.0352560255587252,-2.173841397444171,0
-0.0352560255587252,-2.173841397444171,-0.008846306725571906,-0.5531951992676765,0
-0.008846306725571906,-0.5531951992676765,-0.02449646465640741,-1.5135753196205863,0
-0.02449646465640741,-1.5135753196205863,0.0022255147298030097,0.12623291058470934,1
0.0022255147298030097,0.12623291058470934,-0.004067784485066383,-0.25995868467611094,0
-0.004067784485066383,-0.25995868467611094,0.004067784485066402,0.23928475690482676,1
0.004067784485066402,0.23928475690482676,-0.025055113244026192,-1.5478570821550854,0
-0.025055113244026192,-1.5478570821550854,-0.007560741675432071,-0.47430582811684635,0
-0.007560741675432071,-0.47430582811684635,-0.030518941669958537,-1.8831477689631526,0
-0.030518941669958537,-1.8831477689631526,-0.004436888236635175,-0.28260892928839787,0
-0.004436888236635175,-0.28260892928839787,-0.0027960112131903228,-0.18191565320615694,0
-0.0027960112131903228,-0.18191565320615694,0.006615004893229604,0.3955962684543185,1
0.006615004893229604,0.3955962684543185,-0.007756386188103928,-0.4863116558827106,0
-0.007756386188103928,-0.4863116558827106,-0.007503174295878618,-0.4707731757852673,0
-0.007503174295878618,-0.4707731757852673,0.03767057268915672,2.3013374161980065,1
0.03767057268915672,2.3013374161980065,0.021426915527259626,1.3045369053624392,1
0.021426915527259626,1.3045369053624392,-0.0018751035405855149,-0.12540367260131283,0
-0.0018751035405855149,-0.12540367260131283,0.009830020833881634,0.5928874018515317,1
0.009830020833881634,0.5928874018515317,-0.005296215794623962,-0.33534201397745345,0
-0.005296215794623962,-0.33534201397745345,-0.03726767199484808,-2.297287132303158,0
-0.03726767199484808,-2.297287132303158,0.0196084955824895,1.1929486151273876,1
0.0196084955824895,1.1929486151273876,0.0032974718776456954,0.19201412117747427,1
0.0032974718776456954,0.19201412117747427,0.008246053790466884,0.495686436435556,1
0.008246053790466884,0.495686436435556,0.004245455414720529,0.25018762635563585,1
0.004245455414720529,0.25018762635563585,0.011266359847970435,0.6810290960960537,1
0.011266359847970435,0.6810290960960537,-0.007725830881290669,-0.48443661351160966,0
-0.007725830881290669,-0.48443661351160966,0.0009812430801133874,0.04987753053284565,1
0.0009812430801133874,0.04987753053284565,-0.009460053687375616,-0.5908581023289884,0
-0.009460053687375616,-0.5908581023289884,0.015132458442784727,0.918274256828163,1
0.015132458442784727,0.918274256828163,0.045934703624420224,2.8084701299569446,1
0.045934703624420224,2.8084701299569446,-0.01814045042502418,-1.1235351845959072,0
-0.01814045042502418,-1.1235351845959072,-0.01029660958293219,-0.6421937920521954,0
-0.01029660958293219,-0.6421937920521954,-0.022287699740119696,-1.3780333062102186,0
-0.022287699740119696,-1.3780333062102186,0.0016644461216657907,0.09180264222636979,1
0.0016644461216657907,0.09180264222636979,0.012444247423369722,0.7533107827361176,1
0.012444247423369722,0.7533107827361176,0.0019304731013418531,0.10812752686251982,1
0.0019304731013418531,0.10812752686251982,0.007493611851270428,0.44951244360317233,1
0.007493611851270428,0.44951244360317233,0.005440758683499364,0.3235380361215493,1
0.005440758683499364,0.3235380361215493,0.0037056375671211754,0.2170614220235599,1
0.0037056375671211754,0.2170614220235599,0.003124799693253951,0.18141800234208497,1
0.003124799693253951,0.18141800234208497,0.004622047524692985,0.27329739799485375,1
0.004622047524692985,0.27329739799485375,0.007033366875211277,0.4212692701187299,1
0.007033366875211277,0.4212692701187299,-0.008540276763394071,-0.5344155107043512,0
-0.008540276763394071,-0.5344155107043512,-0.011851288443461911,-0.7375974728191376,0
-0.011851288443461911,-0.7375974728191376,9.539017006071308e-05,-0.00448329624802148,1
9.539017006071308e-05,-0.00448329624802148,-0.0013359997065461916,-0.09232128408449866,0
-0.0013359997065461916,-0.09232128408449866,0.027223452625712675,1.6602444337365794,1
0.027223452625712675,1.6602444337365794,0.0025985980218973127,0.14912736178109148,1
0.0025985980218973127,0.14912736178109148,-0.005856370434928549,-0.36971619622209495,0
-0.005856370434928549,-0.36971619622209495,0.01710073978976288,1.0390588703287598,1
0.01710073978976288,1.0390588703287598,-0.0034887773772272054,-0.22442761090872346,0
-0.0034887773772272054,-0.22442761090872346,0.009246136280850303,0.5570570211109267,1
0.009246136280850303,0.5570570211109267,0.0035475490728576853,0.2073602389544715,1
0.0035475490728576853,0.2073602389544715,0.011824890141960566,0.715303599480209,1
0.011824890141960566,0.715303599480209,0.007865586181121135,0.47233884275192156,1
0.007865586181121135,0.47233884275192156,-0.007596430207991501,-0.4764958735685356,0
-0.007596430207991501,-0.4764958735685356,0.006260053980718366,0.3738145202072119,1
0.006260053980718366,0.3738145202072119,-0.0017845721590460796,-0.11984816706055075,0
-0.0017845721590460796,-0.11984816706055075,0.00703069601668251,0.42110537148929506,1
0.00703069601668251,0.42110537148929506,-0.012493483123846856,-0.7770060849982457,0
-0.012493483123846856,-0.7770060849982457,-0.005492793141751411,-0.3474050856171936,0
-0.005492793141751411,-0.3474050856171936,-0.0018074740165634651,-0.12125355151584218,0
-0.0018074740165634651,-0.12125355151584218,-0.006443206789365016,-0.40572771579856665,0
-0.006443206789365016,-0.40572771579856665,-0.0019136934860656976,-0.12777176477319108,0
-0.0019136934860656976,-0.12777176477319108,0.015118251067455457,0.9174024138161676,1
0.015118251067455457,0.9174024138161676,-0.0013486315623954769,-0.09309644452022275,0
-0.0013486315623954769,-0.09309644452022275,0.0016181260493961498,0.08896018678421577,1
0.0016181260493961498,0.08896018678421577,-0.01493174215122853,-0.9266311244717848,0
-0.01493174215122853,-0.9266311244717848,0.003186006751067299,0.18517400543221432,1
0.003186006751067299,0.18517400543221432,0.008326577085353224,0.5006277905085259,1
0.008326577085353224,0.5006277905085259,-0.00045071375752546677,-0.037995249163656555,0
-0.00045071375752546677,-0.037995249163656555,-0.0007216474299669655,-0.0546212355656437,0
-0.0007216474299669655,-0.0546212355656437,0.016289626305721512,0.9892844674846389,1
0.016289626305721512,0.9892844674846389,-0.05426943090458076,-3.3406089530861207,0
-0.05426943090458076,-3.3406089530861207,0.0034619460745942856,0.20210716622906516,1
0.0034619460745942856,0.20210716622906516,0.012069620688380744,0.7303216173598852,1
0.012069620688380744,0.7303216173598852,0.015748367969365327,0.9560698668071865,1
0.015748367969365327,0.9560698668071865,0.014788361184539557,0.8971585487473206,1
0.014788361184539557,0.8971585487473206,0.010240986298138204,0.6181065123402489,1
0.010240986298138204,0.6181065123402489,0.011889685622449074,0.7192798080031447,1
0.011889685622449074,0.7192798080031447,0.00017505596776312677,0.0004054370621202705,1
0.00017505596776312677,0.0004054370621202705,0.0029718050692323942,0.1720294072824997,1
0.0029718050692323942,0.1720294072824997,0.003658843402240017,0.21418987364053463,1
0.003658843402240017,0.21418987364053463,-0.00034789455635795495,-0.0316856951496816,0
-0.00034789455635795495,-0.0316856951496816,-0.0048831415230923434,-0.3099934954282194,0
-0.0048831415230923434,-0.3099934954282194,-0.001049525602913977,-0.07474165100091032,0
-0.001049525602913977,-0.07474165100091032,0.005410631453884123,0.3216892629314221,1
0.005410631453884123,0.3216892629314221,-0.0033127472179332288,-0.21362542818854782,0
-0.0033127472179332288,-0.21362542818854782,0.009386492121795815,0.5656700306418975,1
0.009386492121795815,0.5656700306418975,0.007497796556765224,0.44976924024282894,1
0.007497796556765224,0.44976924024282894,0.016434995741998113,0.9982051389132566,1
0.016434995741998113,0.9982051389132566,-0.008567015646314078,-0.5360563562287418,0
-0.008567015646314078,-0.5360563562287418,0.020822680431161214,1.2674577029111278,1
0.020822680431161214,1.2674577029111278,-0.02210130250055533,-1.366594942191312,0
-0.02210130250055533,-1.366594942191312,0.0032360147614400796,0.1882427731234204,1
0.0032360147614400796,0.1882427731234204,-0.00836684935556076,-0.523773047187783,0
-0.00836684935556076,-0.523773047187783,-0.009562037098753707,-0.5971163676657435,0
-0.009562037098753707,-0.5971163676657435,0.019542910605963092,1.1889239587674878,1
0.019542910605963092,1.1889239587674878,-0.0059594672689505255,-0.37604278732127777,0
-0.0059594672689505255,-0.37604278732127777,0.0033246643183876233,0.1936827995146409,1
0.0033246643183876233,0.1936827995146409,-0.017427567048845162,-1.0797887236567847,0
-0.017427567048845162,-1.0797887236567847,0.011109797746455709,0.671421580915701,1
0.011109797746455709,0.671421580915701,0.007423517341192636,0.445211057360165,1
0.007423517341192636,0.445211057360165,-0.011457002445269742,-0.713401906482316,0
-0.011457002445269742,-0.713401906482316,-0.01586167019545705,-0.9836966448954535,0
-0.01586167019545705,-0.9836966448954535,-0.003851566820475283,-0.2466903746909899,0
-0.003851566820475283,-0.2466903746909899,-0.01004855894913139,-0.6269720352752969,0
-0.01004855894913139,-0.6269720352752969,-0.005685866451180081,-0.3592531301523033,0
-0.005685866451180081,-0.3592531301523033,-0.008859495715153588,-0.5540045485060526,0
-0.008859495715153588,-0.5540045485060526,0.002782619828694571,0.16041995612681997,1
0.002782619828694571,0.16041995612681997,0.00340049439812293,0.19833615198714702,1
0.00340049439812293,0.19833615198714702,0.008716551896617734,0.5245587986064626,1
0.008716551896617734,0.5245587986064626,-0.010236428806564005,-0.6385007672592933,0
-0.010236428806564005,-0.6385007672592933,-0.03672226093847829,-2.2638176977918176,0
-0.03672226093847829,-2.2638176977918176,0.011626984804401193,0.703159035013593,1
0.011626984804401193,0.703159035013593,-0.004782027091874399,-0.3037885555131293,0
-0.004782027091874399,-0.3037885555131293,-0.015420683082561195,-0.9566352402483762,0
-0.015420683082561195,-0.9566352402483762,0.008668556929149087,0.5216135623451048,1
0.008668556929149087,0.5216135623451048,-0.0022298426166576344,-0.1471724213946251,0
-0.0022298426166576344,-0.1471724213946251,-0.0030742194531751706,-0.1989880472472026,0
-0.0030742194531751706,-0.1989880472472026,0.000559626533643651,0.024004810817756687,1
0.000559626533643651,0.024004810817756687,-0.024447829974876777,-1.510590826971494,0
-0.024447829974876777,-1.510590826971494,0.02947063770668142,1.7981441206313562,1
0.02947063770668142,1.7981441206313562,0.035814118207712395,2.1874151167427183,1
0.035814118207712395,2.1874151167427183,0.005712765662676325,0.34022988655227876,1
0.005712765662676325,0.34022988655227876,0.005680315264925579,0.33823855093540567,1
0.005680315264925579,0.33823855093540567,0.008811406193392103,0.5303795820998146,1
0.008811406193392103,0.5303795820998146,0.0035029506936955757,0.20462343610963496,1
0.0035029506936955757,0.20462343610963496,0.021277390724550448,1.2953612377010508,1
0.021277390724550448,1.2953612377010508,0.0011973948731439754,0.06314179827523073,1
0.0011973948731439754,0.06314179827523073,-0.0006840034566664378,-0.05231119347094438,0
-0.0006840034566664378,-0.05231119347094438,-0.003084047677028813,-0.19959116134030827,0
-0.003084047677028813,-0.19959116134030827,-0.01399714162988784,-0.8692788750482451,0
-0.01399714162988784,-0.8692788750482451,-0.0021776063597096973,-0.14396691618783086,0
-0.0021776063597096973,-0.14396691618783086,0.008509240716508316,0.5118370396961768,1
0.008509240716508316,0.5118370396961768,-0.004071924259767537,-0.2602127241141344,0
-0.004071924259767537,-0.2602127241141344,0.0076104946182750524,0.4566850156845002,1
0.0076104946182750524,0.4566850156845002,0.007125426779586838,0.42691857426215196,1
0.007125426779586838,0.42691857426215196,-0.005403837722243496,-0.34194628981010905,0
-0.005403837722243496,-0.34194628981010905,-0.006384817879822088,-0.4021446498498437,0
-0.006384817879822088,-0.4021446498498437,0.0031112341508406256,0.18058554574240474,1
0.0031112341508406256,0.18058554574240474,0.007050757500144749,0.42233645490628485,1
0.007050757500144749,0.42233645490628485,0.016317164940704808,0.9909743902123517,1
0.016317164940704808,0.9909743902123517,-0.0045623679184863455,-0.29030905554211667,0
-0.0045623679184863455,-0.29030905554211667,0.008348536922235208,0.5019753673752165,1
0.008348536922235208,0.5019753673752165,-0.009449975338514171,-0.5902396391840611,0
-0.009449975338514171,-0.5902396391840611,-0.013484900557335302,-0.8378449339288122,0
-0.013484900557335302,-0.8378449339288122,-0.0037878386593189948,-0.24277966277666746,0
-0.0037878386593189948,-0.24277966277666746,-0.004581799805470581,-0.29150150344220044,0
-0.004581799805470581,-0.29150150344220044,0.0050991539427514415,0.30257528267953976,1
0.0050991539427514415,0.30257528267953976,0.008925573427850017,0.5373855141072493,1
0.008925573427850017,0.5373855141072493,0.005708200112353426,0.33994971917071237,1
0.005708200112353426,0.33994971917071237,0.00118865178793601,0.06260527428222121,1
0.00118865178793601,0.06260527428222121,-0.01057757766813544,-0.6594355454373907,0
-0.01057757766813544,-0.6594355454373907,0.003338896031387596,0.1945561360205181,1
0.003338896031387596,0.1945561360205181,0.004349519727231207,0.25657358727789165,1
0.004349519727231207,0.25657358727789165,-0.004776987589351089,-0.30347930380709254,0
-0.004776987589351089,-0.30347930380709254,0.017040827520169312,1.0353823225944063,1
0.017040827520169312,1.0353823225944063,-0.007255584172716903,-0.4555796784844036,0
-0.007255584172716903,-0.4555796784844036,0.0003386464296590871,0.01044425125035786,1
0.0003386464296590871,0.01044425125035786,-0.001694315439980978,-0.11430951632606749,0
-0.001694315439980978,-0.11430951632606749,0.00414603003748197,0.244086336120707,1
0.00414603003748197,0.244086336120707,0.00446522314555663,0.263673788011181,1
0.00446522314555663,0.263673788011181,-0.013285574764723666,-0.8256132024955702,0
-0.013285574764723666,-0.8256132024955702,-0.014760426213759538,-0.9161182324375982,0
-0.014760426213759538,-0.9161182324375982,-0.013052743827053535,-0.8113254103256937,0
-0.013052743827053535,-0.8113254103256937,-0.028518781894660155,-1.7604069190487033,0
-0.028518781894660155,-1.7604069190487033,0.00018026739024100858,0.0007252387260163738,1
0.00018026739024100858,0.0007252387260163738,0.01679808280318566,1.0204861661759166,1
0.01679808280318566,1.0204861661759166,0.03302989359923407,2.016559718580152,1
0.03302989359923407,2.016559718580152,-0.011380411433766969,-0.7087018590342289,0
-0.011380411433766969,-0.7087018590342289,-0.024400005647076756,-1.5076560621025794,0
-0.024400005647076756,-1.5076560621025794,0.0047863350335528845,0.28337898683431706,1
0.0047863350335528845,0.28337898683431706,-0.025705549970738668,-1.5877714718144575,0
-0.025705549970738668,-1.5877714718144575,-0.005458514856787059,-0.3453015807461856,0
-0.005458514856787059,-0.3453015807461856,0.009984638221042848,0.6023755786192541,1
0.009984638221042848,0.6023755786192541,0.008095767072331719,0.48646401343586754,1
0.008095767072331719,0.48646401343586754,-0.01189631603957622,-0.7403606147865588,0
-0.01189631603957622,-0.7403606147865588,0.003619858219518164,0.21179752752876638,1
0.003619858219518164,0.21179752752876638,-0.0054347822771627615,-0.34384521859466,0
-0.0054347822771627615,-0.34384521859466,-0.0328685197874805,-2.0273308580576304,0
-0.0328685197874805,-2.0273308580576304,0.005895831557263774,0.3514638208456831,1
0.005895831557263774,0.3514638208456831,0.0022369800652429083,0.1269364868858763,1
0.0022369800652429083,0.1269364868858763,0.014969740817627355,0.908289004722542,1
0.014969740817627355,0.908289004722542,0.010129215770477243,0.6112476554979518,1
0.010129215770477243,0.6112476554979518,0.005884247503471596,0.3507529593307851,1
0.005884247503471596,0.3507529593307851,-0.0032546869736476006,-0.21006253095510283,0
-0.0032546869736476006,-0.21006253095510283,0.009822078088023104,0.5923999911009655,1
0.009822078088023104,0.5923999911009655,0.016188201520058624,0.9830604825068405,1
0.016188201520058624,0.9830604825068405,0.021299709676916266,1.2967308518770844,1
0.021299709676916266,1.2967308518770844,0.0062852964594582545,0.375363538107054,1
0.0062852964594582545,0.375363538107054,0.006501815280273885,0.3886503287012806,1
0.006501815280273885,0.3886503287012806,0.003490139039158315,0.2038372422334587,1
0.003490139039158315,0.2038372422334587,0.004493617130912408,0.26541619976151565,1
0.004493617130912408,0.26541619976151565,0.009848963716087369,0.594049841717824,1
0.009848963716087369,0.594049841717824,-0.034253980905968866,-2.1123504036493403,0
-0.034253980905968866,-2.1123504036493403,0.01590951109660739,0.9659584990253863,1
0.01590951109660739,0.9659584990253863,0.01876323831151587,1.1410789609542882,1
0.01876323831151587,1.1410789609542882,0.010494866622938467,0.6336860111519836,1
0.010494866622938467,0.6336860111519836,-0.011919293251203047,-0.7417706233861568,0
-0.011919293251203047,-0.7417706233861568,-0.007659678540282633,-0.4803771405337844,0
-0.007659678540282633,-0.4803771405337844,-0.018075307529624197,-1.1195376567753663,0
-0.018075307529624197,-1.1195376567753663,0.0036927371793606693,0.2162697829867663,1
0.0036927371793606693,0.2162697829867663,0.0,-0.010336963885642656,0
0.0,-0.010336963885642656,0.013283553005120135,0.8048152083896227,1
0.013283553005120135,0.8048152083896227,0.0024500575041835645,0.1400120952828449,1
0.0024500575041835645,0.1400120952828449,-0.013935133779859435,-0.8654737309253369,0
-0.013935133779859435,-0.8654737309253369,-0.021273709724738358,-1.3158092789951406,0
-0.021273709724738358,-1.3158092789951406,0.0016592712443148432,0.09148508317328687,1
0.0016592712443148432,0.09148508317328687,0.017473018379747598,1.0619039405596418,1
0.017473018379747598,1.0619039405596418,-0.00783375636957381,-0.49105951750303123,0
-0.00783375636957381,-0.49105951750303123,-0.029468067926126974,-1.8186603524759255,0
-0.029468067926126974,-1.8186603524759255,0.019654299911148525,1.1957594216933434,1
0.019654299911148525,1.1957594216933434,0.009381599431774594,0.5653697881617772,1
0.009381599431774594,0.5653697881617772,0.029896145344866034,1.8242556192230517,1
0.029896145344866034,1.8242556192230517,-0.016583839813562117,-1.0280129609234496,0
-0.016583839813562117,-1.0280129609234496,0.008495506093273894,0.5109942073635466,1
0.008495506093273894,0.5109942073635466,0.006324598438442935,0.3777753245870515,1
0.006324598438442935,0.3777753245870515,0.018984740113947813,1.154671534819555,1
0.018984740113947813,1.154671534819555,0.024362678677755607,1.4846915453514586,1
0.024362678677755607,1.4846915453514586,0.0036157440992995575,0.2115450623914717,1
0.0036157440992995575,0.2115450623914717,0.004720923711705544,0.2793649868845518,1
0.004720923711705544,0.2793649868845518,-0.006406648238420515,-0.4034842812139973,0
-0.006406648238420515,-0.4034842812139973,-0.007175998370504621,-0.45069585413932023,0
-0.007175998370504621,-0.45069585413932023,0.0037153671635630856,0.21765848379400096,1
0.0037153671635630856,0.21765848379400096,-0.0026639921390049504,-0.17381423372429877,0
-0.0026639921390049504,-0.17381423372429877,0.010773572253780997,0.6507889278429523,1
0.010773572253780997,0.6507889278429523,0.007409509112413781,0.4443514350803118,1
0.007409509112413781,0.4443514350803118,-0.0068498920917587445,-0.4306841719177157,0
-0.0068498920917587445,-0.4306841719177157,0.0025542773162550913,0.14640759851691781,1
0.0025542773162550913,0.14640759851691781,0.020905537188078627,1.2725422511011248,1
0.020905537188078627,1.2725422511011248,0.006226209428325441,0.37173763156212253,1
0.006226209428325441,0.37173763156212253,0.006804362991229082,0.4072163270984697,1
0.006804362991229082,0.4072163270984697,0.00046223080316941276,0.01802807091723385,1
0.00046223080316941276,0.01802807091723385,-0.007033873731434488,-0.4419743013870407,0
-0.007033873731434488,-0.4419743013870407,0.002169524983878163,0.1227970705652366,1
0.002169524983878163,0.1227970705652366,0.008094112905391668,0.48636250461710734,1
0.008094112905391668,0.48636250461710734,0.0005373398621130595,0.02263717757204716,1
0.0005373398621130595,0.02263717757204716,-0.004383498449591419,-0.2793326371044275,0
-0.004383498449591419,-0.2793326371044275,-0.001928640906405597,-0.12868902103401858,0
-0.001928640906405597,-0.12868902103401858,-0.0044888383953859004,-0.28579687792980246,0
-0.0044888383953859004,-0.28579687792980246,-0.001008923969974377,-0.07225011057675718,0
-0.001008923969974377,-0.07225011057675718,-0.017940810606657247,-1.1112841828080784,0
-0.017940810606657247,-1.1112841828080784,-0.006503311792012382,-0.4094160906974906,0
-0.006503311792012382,-0.4094160906974906,-0.0021505973385092026,-0.14230949348668112,0
-0.0021505973385092026,-0.14230949348668112,0.018799899747869782,1.143328709155775,1
0.018799899747869782,1.143328709155775,0.014912942328255316,0.9048035357387749,1
0.014912942328255316,0.9048035357387749,-0.004017033243172941,-0.2568443081942193,0
-0.004017033243172941,-0.2568443081942193,-0.0027129118307068984,-0.17681621617150312,0
-0.0027129118307068984,-0.17681621617150312,-0.002642391704024241,-0.17248871174310676,0
-0.002642391704024241,-0.17248871174310676,-0.004211196408750511,-0.26875923232147597,0
-0.004211196408750511,-0.26875923232147597,0.008869637203497129,0.5339529584670107,1
0.008869637203497129,0.5339529584670107,0.015601889649736666,0.9470811481721564,1
0.015601889649736666,0.9470811481721564,0.010695201224918092,0.645979648699306,1
0.010695201224918092,0.645979648699306,0.0033142728410345554,0.19304512107618116,1
0.0033142728410345554,0.19304512107618116,-0.00384249493460029,-0.24613367367321373,0
-0.00384249493460029,-0.24613367367321373,-0.001208578308958129,-0.08450200342982564,0
-0.001208578308958129,-0.08450200342982564,0.010899472666923366,0.6585148724922338,1
0.010899472666923366,0.6585148724922338,-0.005622836202751903,-0.3553852460172775,0
-0.005622836202751903,-0.3553852460172775,0.0018027909796302429,0.1002922467357483,1
0.0018027909796302429,0.1002922467357483,-0.0011262917882727253,-0.07945244808421699,0
-0.0011262917882727253,-0.07945244808421699,-0.010953931677047234,-0.6825307058805871,0
-0.010953931677047234,-0.6825307058805871,0.0058318360884367015,0.34753670545644544,1
0.0058318360884367015,0.34753670545644544,0.00037753824203977333,0.01283086764234415,1
0.00037753824203977333,0.01283086764234415,0.004068058155213454,0.23930155081642335,1
0.004068058155213454,0.23930155081642335,0.003976736087321674,0.23369752439442915,1
0.003976736087321674,0.23369752439442915,-0.001348765134385624,-0.09310464123520418,0
-0.001348765134385624,-0.09310464123520418,-0.000375018207426288,-0.033350152172577946,0
-0.000375018207426288,-0.033350152172577946,-0.0029297951010547585,-0.19012537140173988,0
-0.0029297951010547585,-0.19012537140173988,0.004279180107240163,0.2522571597369608,1
0.004279180107240163,0.2522571597369608,-0.014259544547505103,-0.8853813672221863,0
-0.014259544547505103,-0.8853813672221863,-0.014620059097925612,-0.9075045310172075,0
-0.014620059097925612,-0.9075045310172075,-0.004637199022623387,-0.2949011053549608,0
-0.004637199022623387,-0.2949011053549608,-0.007854724165326076,-0.4923462172473463,0
-0.007854724165326076,-0.4923462172473463,0.0025732153774233285,0.14756974253772462,1
0.0025732153774233285,0.14756974253772462,0.0019449960842564738,0.1090187372989299,1
0.0019449960842564738,0.1090187372989299,-0.004440181193401417,-0.28281100330129005,0
-0.004440181193401417,-0.28281100330129005,0.008783274323806387,0.5286532552206941,1
0.008783274323806387,0.5286532552206941,0.005479399947422188,0.32590927747647974,1
0.005479399947422188,0.32590927747647974,0.006214872676377375,0.37104194585413086,1
0.006214872676377375,0.37104194585413086,-0.02580039846451865,-1.5935918992040263,0
-0.02580039846451865,-1.5935918992040263,0.008440861311069314,0.5076409017456593,1
0.008440861311069314,0.5076409017456593,-0.020442618117198625,-1.264808908161778,0
-0.020442618117198625,-1.264808908161778,0.0021424667524071322,0.12113662805011764,1
0.0021424667524071322,0.12113662805011764,0.0007923181764944258,0.03828405508824649,1
0.0007923181764944258,0.03828405508824649,-0.0035704769012396983,-0.2294411448967287,0
-0.0035704769012396983,-0.2294411448967287,-0.02291372117292978,-1.4164494385995965,0
-0.02291372117292978,-1.4164494385995965,0.008664370200631865,0.5213566415616198,1
0.008664370200631865,0.5213566415616198,-0.00493030392828247,-0.3128876410702505,0
-0.00493030392828247,-0.3128876410702505,-0.002514888439659051,-0.16466440729087095,0
-0.002514888439659051,-0.16466440729087095,-0.02692078040671134,-1.6623447226093553,0
-0.02692078040671134,-1.6623447226093553,0.012439003123003145,0.7529889635033994,1
0.012439003123003145,0.7529889635033994,0.009759395665282014,0.588553451471005,1
0.009759395665282014,0.588553451471005,0.018837226523014082,1.1456192862198464,1
0.018837226523014082,1.1456192862198464,-0.0040125244233911945,-0.25656762211195866,0
-0.0040125244233911945,-0.25656762211195866,-0.014171998876206926,-0.8800090813507407,0
-0.014171998876206926,-0.8800090813507407,-0.014127555057204444,-0.8772817631708745,0
-0.014127555057204444,-0.8772817631708745,0.008730063472181818,0.5253879435022355,1
0.008730063472181818,0.5253879435022355,0.0033564246336002953,0.1956317878559211,1
0.0033564246336002953,0.1956317878559211,-0.015649784255550366,-0.9706941534593937,0
-0.015649784255550366,-0.9706941534593937,-0.0025767651330541744,-0.16846150291843412,0
-0.0025767651330541744,-0.16846150291843412,-0.00684819515623421,-0.43058003858241733,0
-0.00684819515623421,-0.43058003858241733,0.0015909135716866047,0.08729027886805978,1
0.0015909135716866047,0.08729027886805978,-0.0013395517287270997,-0.09253925578195199,0
-0.0013395517287270997,-0.09253925578195199,-0.0037772063221784545,-0.24212720385147374,0
-0.0037772063221784545,-0.24212720385147374,-0.0310897617562393,-1.9181764418739893,0
-0.0310897617562393,-1.9181764418739893,-0.050166138857317244,-3.088808292184823,0
-0.050166138857317244,-3.088808292184823,-0.004937838593201625,-0.3133500097207048,0
-0.004937838593201625,-0.3133500097207048,-0.05173243132199755,-3.18492464783985,0
-0.05173243132199755,-3.18492464783985,0.008267694067119146,0.49701440332174446,1
0.008267694067119146,0.49701440332174446,0.008199899424291973,0.4928541496345047,1
0.008199899424291973,0.4928541496345047,-0.008774478636095132,-0.5487874310188648,0
-0.008774478636095132,-0.5487874310188648,0.03362690009619039,2.053195334267371,1
0.03362690009619039,2.053195334267371,-0.05043562133974552,-3.1053452255532425,0
-0.05043562133974552,-3.1053452255532425,-0.011759122139386917,-0.7319416394025542,0
-0.011759122139386917,-0.7319416394025542,-0.040637123812762924,-2.504055304018319,0
-0.040637123812762924,-2.504055304018319,0.04584783616691467,2.8031394630293245,1
0.04584783616691467,2.8031394630293245,-0.050375083639660735,-3.101630297949939,0
-0.050375083639660735,-3.101630297949939,-0.07570370645427296,-4.655934473957199,0
-0.07570370645427296,-4.655934473957199,0.04661608630409722,2.8502835341926454,1
0.04661608630409722,2.8502835341926454,-0.13348594106021477,-8.201771498117626,0
-0.13348594106021477,-8.201771498117626,0.002423711517641204,0.13839536005000003,1
0.002423711517641204,0.13839536005000003,-0.12488889051216431,-7.674208998332937,0
-0.12488889051216431,-7.674208998332937,0.04871179055589914,2.9788875208402215,1
0.04871179055589914,2.9788875208402215,0.04044579540107436,2.4716404082736467,1
0.04044579540107436,2.4716404082736467,-0.09493394879634716,-5.836008345193263,0
-0.09493394879634716,-5.836008345193263,0.12374229286934961,7.583173506987068,1
0.12374229286934961,7.583173506987068,0.04364063949912631,2.6676936860077016,1
0.04364063949912631,2.6676936860077016,0.04616997134464004,2.822907456561469,1
0.04616997134464004,2.822907456561469,-0.054488209083428545,-3.3540343903667535,0
-0.054488209083428545,-3.3540343903667535,0.010765352959079908,0.6502845465281354,1
0.010765352959079908,0.6502845465281354,-0.027373107610880718,-1.690102017883876,0
-0.027373107610880718,-1.690102017883876,-0.04539282098446466,-2.795891146334134,0
-0.04539282098446466,-2.795891146334134,0.010459614135104094,0.6315227238127288,1
0.010459614135104094,0.6315227238127288,-0.0037230502788748784,-0.2388038899516664,0
-0.0037230502788748784,-0.2388038899516664,0.07425889948702323,4.546599211570235,1
0.07425889948702323,4.546599211570235,0.050201844356215226,3.070325451013459,1
0.050201844356215226,3.070325451013459,0.024507865088428876,1.4936009853182766,1
0.024507865088428876,1.4936009853182766,0.04010614936557255,2.4507978518027036,1
0.04010614936557255,2.4507978518027036,-0.036577280460417826,-2.254920894987407,0
-0.036577280460417826,-2.254920894987407,-0.009545837315355134,-0.5961222594913231,0
-0.009545837315355134,-0.5961222594913231,-0.04756230951769645,-2.929022943972049,0
-0.04756230951769645,-2.929022943972049,0.0047355839698,0.2802646212841139,1
0.0047355839698,0.2802646212841139,0.04841509739761418,2.960680790127289,1
0.04841509739761418,2.960680790127289,-0.023969469565046676,-1.4812359904263925,0
-0.023969469565046676,-1.4812359904263925,-0.03450731885811044,-2.1278966194794253,0
-0.03450731885811044,-2.1278966194794253,0.023136673749136607,1.4094571121844626,1
0.023136673749136607,1.4094571121844626,0.004983641272897829,0.29548678732591005,1
0.004983641272897829,0.29548678732591005,0.024229072248353797,1.4764927169871762,1
0.024229072248353797,1.4764927169871762,0.03454833553913973,2.1097397017752257,1
0.03454833553913973,2.1097397017752257,-0.04811853812572566,-2.9631562031943286,0
-0.04811853812572566,-2.9631562031943286,0.04686772757803554,2.8657256324780866,1
0.04686772757803554,2.8657256324780866,-0.05410773324688417,-3.330686291816776,0
-0.05410773324688417,-3.330686291816776,-0.03165283319505535,-1.9527296149836346,0
-0.03165283319505535,-1.9527296149836346,-0.01338460931784121,-0.8316905096040644,0
-0.01338460931784121,-0.8316905096040644,0.01644805584148678,0.9990065787437156,1
0.01644805584148678,0.9990065787437156,0.005986423362913926,0.35702303434357757,1
0.005986423362913926,0.35702303434357757,0.017415013989702032,1.0583444708508283,1
0.017415013989702032,1.0583444708508283,0.017769500253651833,1.0800977056961323,1
0.017769500253651833,1.0800977056961323,-0.01710573699221021,-1.0600394540398128,0
-0.01710573699221021,-1.0600394540398128,-0.031342087891093016,-1.9336605670074192,0
-0.031342087891093016,-1.9336605670074192,-0.039453531257957995,-2.431423528335549,0
-0.039453531257957995,-2.431423528335549,0.020328569918669753,1.2371363530850525,1
0.020328569918669753,1.2371363530850525,0.01098972193672382,0.6640530660986989,1
0.01098972193672382,0.6640530660986989,0.05516866072615613,3.3751167332621996,1
0.05516866072615613,3.3751167332621996,0.014805508991049548,0.8982108328554194,1
0.014805508991049548,0.8982108328554194,0.029281693081268517,1.786549434948565,1
0.029281693081268517,1.786549434948565,-0.009420224081408772,-0.5884139377434873,0
-0.009420224081408772,-0.5884139377434873,0.01139766598316421,0.6890867657041034,1
0.01139766598316421,0.6890867657041034,0.038948746965609786,2.379773248659057,1
0.038948746965609786,2.379773248659057,0.02322811121076637,1.4150682198034938,1
0.02322811121076637,1.4150682198034938,0.002829417161995888,0.1632916989416041,1
0.002829417161995888,0.1632916989416041,-0.009495458083567497,-0.5930307116039905,0
-0.009495458083567497,-0.5930307116039905,0.01658255487350498,1.0072601821340357,1
0.01658255487350498,1.0072601821340357,0.03936203440256714,2.405134848216044,1
0.03936203440256714,2.405134848216044,0.037960796193295225,2.3191471332031375,1
0.037960796193295225,2.3191471332031375,-0.0050269185833045,-0.3188164498674509,0
-0.0050269185833045,-0.3188164498674509,0.025149005746792265,1.5329449168851899,1
0.025149005746792265,1.5329449168851899,-0.004838324160767444,-0.3072432545671555,0
-0.004838324160767444,-0.3072432545671555,-0.017614576590510612,-1.0912646619141195,0
-0.017614576590510612,-1.0912646619141195,-0.02159203237433387,-1.3353433147461315,0
-0.02159203237433387,-1.3353433147461315,-0.09095434280709737,-5.591797743881533,0
-0.09095434280709737,-5.591797743881533,0.02057828714693476,1.252460381302226,1
0.02057828714693476,1.252460381302226,0.015330083351798654,0.930401612650533,1
0.015330083351798654,0.930401612650533,0.01500321655500733,0.9103432608416153,1
0.01500321655500733,0.9103432608416153,0.0010494740054911055,0.05406455692680518,1
0.0010494740054911055,0.05406455692680518,-0.0043003035897362036,-0.2742273410509563,0
-0.0043003035897362036,-0.2742273410509563,-0.006726238007247576,-0.4230960743988413,0
-0.006726238007247576,-0.4230960743988413,-0.00048221276699824853,-0.03992820234164743,0
-0.00048221276699824853,-0.03992820234164743,0.00019294244274763473,0.0015030499471931826,1
0.00019294244274763473,0.0015030499471931826,-0.017610078963164896,-1.0909886626615453,0
-0.017610078963164896,-1.0909886626615453,0.008697825820188104,0.5234096631399258,1
0.008697825820188104,0.5234096631399258,-0.006149033728591874,-0.3876756321864742,0
-0.006149033728591874,-0.3876756321864742,0.0174694178250458,1.0616829906386807,1
0.0174694178250458,1.0616829906386807,0.020191115620972377,1.2287013982718789,1
0.020191115620972377,1.2287013982718789,0.0027305786086575133,0.15722641946199006,1
0.0027305786086575133,0.15722641946199006,0.02525434784413402,1.5394092897413876,1
0.02525434784413402,1.5394092897413876,0.007398961088205874,0.44370415006229186,1
0.007398961088205874,0.44370415006229186,-0.013376279287216816,-0.8311793329214421,0
-0.013376279287216816,-0.8311793329214421,-0.01814929015191414,-1.1240776390562381,0
-0.01814929015191414,-1.1240776390562381,-0.013141284549067081,-0.8167587580043113,0
-0.013141284549067081,-0.8167587580043113,0.01848062269037261,1.1237361056651156,1
0.01848062269037261,1.1237361056651156,0.021625427875115802,1.316718719333148,1
0.021625427875115802,1.316718719333148,0.021167719195260136,1.2886311869907259,1
0.021167719195260136,1.2886311869907259,0.034313223406153004,2.0953119228625714,1
0.034313223406153004,2.0953119228625714,-0.0031185108670457305,-0.20170601300650007,0
-0.0031185108670457305,-0.20170601300650007,-0.02976362075813258,-1.83679710647078,0
-0.02976362075813258,-1.83679710647078,-0.02250737123229437,-1.39151356213001,0
-0.02250737123229437,-1.39151356213001,0.007014415111840619,0.4201062852551106,1
0.007014415111840619,0.4201062852551106,0.013703754082705584,0.8306010671168894,1
0.013703754082705584,0.8306010671168894,-0.007640129437801057,-0.47917749964344836,0
-0.007640129437801057,-0.47917749964344836,-0.0024391743716767264,-0.16001817394021547,0
-0.0024391743716767264,-0.16001817394021547,-0.002989215508050305,-0.19377173573071346,0
-0.002989215508050305,-0.19377173573071346,-0.015081877088174635,-0.9358442333394842,0
-0.015081877088174635,-0.9358442333394842,0.016713497278370428,1.0152955312403986,1
0.016713497278370428,1.0152955312403986,-0.020219404411726115,-1.2511112824717692,0
-0.020219404411726115,-1.2511112824717692,-0.005096100222779122,-0.32306181732881945,0
-0.005096100222779122,-0.32306181732881945,-0.0025113185685456466,-0.16444534028434696,0
-0.0025113185685456466,-0.16444534028434696,0.0038109788708870617,0.22352574618155985,1
0.0038109788708870617,0.22352574618155985,0.03527367439202372,2.154250499551704,1
0.03527367439202372,2.154250499551704,-0.001972221299822222,-0.13136335465157403,0
-0.001972221299822222,-0.13136335465157403,0.020164988205849114,1.2270980757883945,1
0.020164988205849114,1.2270980757883945,0.017694938103334956,1.0755221603750207,1
0.017694938103334956,1.0755221603750207,0.04353475847653988,2.6611962417222164,1
0.04353475847653988,2.6611962417222164,0.000826843732046938,0.040402733848122915,1
0.000826843732046938,0.040402733848122915,-0.018182321975761754,-1.1261046541894046,0
-0.018182321975761754,-1.1261046541894046,0.0014298820526592074,0.07740849554628039,1
0.0014298820526592074,0.07740849554628039,-0.0005044572414955086,-0.041293246144353986,0
-0.0005044572414955086,-0.041293246144353986,-0.0019359100945144855,-0.12913509856127006,0
-0.0019359100945144855,-0.12913509856127006,-0.0004213799529085765,-0.03619516491320491,0
-0.0004213799529085765,-0.03619516491320491,-0.003377253552118957,-0.21758389309750273,0
